EC-Lab ASCII FILE
Nb header lines : 75                          

Potentio Electrochemical Impedance Spectroscopy

Run on channel : 2 (SN 20919)
User : 
CE vs. WE compliance from -10 V to 10 V
Electrode connection : standard
Ewe ctrl range : min = -10.00 V, max = 10.00 V
Safety Limits :
	Do not start on E overload
Acquisition started on : 01/24/2020 09:45:23
Technique started on : 01/24/2020 09:45:24
Saved on :
	File : DE_40_2_60.mpr
	Directory : P:\Chemistry\Data\VMP3\Kyler\DOE\DE_40\2ND 60C\
	Host : 10.0.4.99
Device : VMP3 (SN 0183)
Address : USB
EC-Lab for windows v11.33 (software)
Internet server v11.32 (firmware)
Command interpretor v11.33 (firmware)
Electrode material : 
Initial state : 
Electrolyte : 
Comments : 
Electrode surface area : 0.001 cm²
Characteristic mass : 0.001 g
Equivalent Weight : 0.000 g/eq.
Density : 0.000 g/cm3
Record Analogic IN 1
Cycle Definition : Charge/Discharge alternance
External device configuration :
   device type : Thermostat
   device name : Other
   Analog OUT : 
      mode : E/V
      unit : T/°C
      max : 400.000 at 5.000 V
      min : -100.000 at 0.000 V
      current : 0.000
   Analog IN 1 : 
      unit : T/°C
      max : 400.000 at 5.000 V
      min : -100.000 at 0.000 V
Mode                Single sine         
E (V)               0.0000              
vs.                 Eoc                 
tE (h:m:s)          0:00:0.0000         
record              0                   
dI                  1.000               
unit dI             mA                  
dt (s)              0.000               
fi                  1.000               
unit fi             MHz                 
ff                  1.000               
unit ff             Hz                  
Nd                  20                  
Points              per decade          
spacing             Logarithmic         
Va (mV)             128.0               
pw                  0.50                
Na                  3                   
corr                0                   
E range min (V)     -10.000             
E range max (V)     10.000              
I Range             Auto                
Bandwidth           5                   
nc cycles           0                   
goto Ns'            0                   
nr cycles           0                   
inc. cycle          1                   

freq/Hz	Re(Z)/Ohm	-Im(Z)/Ohm	|Z|/Ohm	Phase(Z)/deg	time/s	<Ewe>/V	<I>/mA	Cs/µF	Cp/µF	cycle number	I Range	|Ewe|/V	|I|/A	(Q-Qo)/mA.h	Analog OUT/V	Analog IN 1/V	Re(Y)/Ohm-1	Im(Y)/Ohm-1	|Y|/Ohm-1	Phase(Y)/deg	dq/mA.h	
1.0000186E+006	5.4512085E+001	1.2467592E+001	5.5919659E+001	-1.2882680E+001	1.644480504764942E+000	-3.5080414E-002	1.4262694E-003	1.2765255E-002	6.3454971E-004	1.000000000000000E+000	11	9.3482807E-004	1.6717342E-005	3.447099543460455E-007	0.0000000E+000	-1.0010986E+002	1.7432664E-002	3.9870669E-003	1.7882798E-002	1.2882680E+001	3.447099543460455E-007
8.9124669E+005	5.4781143E+001	9.9486389E+000	5.5677185E+001	-1.0293134E+001	2.240487333066994E+000	-3.4645800E-002	1.6661981E-003	1.7949756E-002	5.7310122E-004	1.000000000000000E+000	11	1.5820720E-003	2.8415086E-005	7.131817048151181E-007	0.0000000E+000	-1.0011788E+002	1.7671628E-002	3.2092915E-003	1.7960679E-002	1.0293134E+001	3.684717504690727E-007
7.9433269E+005	5.5901787E+001	8.0679350E+000	5.6480984E+001	-8.2124147E+000	2.836474694689969E+000	-3.4302905E-002	1.5561774E-003	2.4834493E-002	5.0672877E-004	1.000000000000000E+000	11	2.5488560E-003	4.5127683E-005	1.085397280936566E-006	0.0000000E+000	-1.0009383E+002	1.7523514E-002	2.5290528E-003	1.7705074E-002	8.2124147E+000	3.722155761214482E-007
7.0794981E+005	5.7193165E+001	6.8631186E+000	5.7603477E+001	-6.8427129E+000	3.432487736368785E+000	-3.4020882E-002	1.4857424E-003	3.2756399E-002	4.6498800E-004	1.000000000000000E+000	11	3.9194557E-003	6.8041998E-005	1.277489154403156E-006	0.0000000E+000	-1.0006977E+002	1.7236408E-002	2.0683503E-003	1.7360063E-002	6.8427129E+000	1.920918734665899E-007
6.3095681E+005	5.8379940E+001	6.0276222E+000	5.8690285E+001	-5.8947973E+000	4.028491711331299E+000	-3.3780951E-002	1.4218115E-003	4.1847978E-002	4.4140179E-004	1.000000000000000E+000	11	5.7385922E-003	9.7777549E-005	1.444308282677310E-006	0.0000000E+000	-1.0010986E+002	1.6948497E-002	1.7499015E-003	1.7038595E-002	5.8947973E+000	1.668191282741543E-007
5.6234225E+005	5.9374722E+001	5.4186587E+000	5.9621468E+001	-5.2144856E+000	4.624485392967472E+000	-3.3571258E-002	1.5032140E-003	5.2230913E-002	4.3142558E-004	1.000000000000000E+000	11	8.0259470E-003	1.3461505E-004	1.879535396208262E-006	0.0000000E+000	-1.0007779E+002	1.6703069E-002	1.5243563E-003	1.6772483E-002	5.2144856E+000	4.352271135309519E-007
5.0120619E+005	6.0183929E+001	4.9455819E+000	6.0386787E+001	-4.6976948E+000	5.221486754628131E+000	-3.3403102E-002	1.5996698E-003	6.4207584E-002	4.3066271E-004	1.000000000000000E+000	11	1.0808854E-002	1.7899369E-004	1.704172884663826E-006	0.0000000E+000	-1.0007779E+002	1.6504284E-002	1.3562306E-003	1.6559914E-002	4.6976948E+000	-1.753625115444367E-007
4.4668572E+005	6.0828522E+001	4.5564904E+000	6.0998940E+001	-4.2838626E+000	5.816489422897575E+000	-3.3300810E-002	1.4379830E-003	7.8196548E-002	4.3631881E-004	1.000000000000000E+000	11	1.4116683E-002	2.3142506E-004	1.940986145564238E-006	0.0000000E+000	-1.0008581E+002	1.6347928E-002	1.2245765E-003	1.6393729E-002	4.2838626E+000	2.368132609004128E-007
3.9810347E+005	6.1301060E+001	4.1959739E+000	6.1444496E+001	-3.9157102E+000	6.412474571232451E+000	-3.3255883E-002	1.3878070E-003	9.5277727E-002	4.4431502E-004	1.000000000000000E+000	11	1.7963652E-002	2.9235575E-004	2.055257642662683E-006	0.0000000E+000	-1.0006977E+002	1.6236858E-002	1.1113908E-003	1.6274851E-002	3.9157102E+000	1.142714970984445E-007
3.5480997E+005	6.1659000E+001	3.8724723E+000	6.1780487E+001	-3.5937216E+000	7.007478759478545E+000	-3.3251483E-002	1.2382031E-003	1.1583398E-001	4.5510329E-004	1.000000000000000E+000	11	2.2392893E-002	3.6245899E-004	2.772040006430972E-006	0.0000000E+000	-1.0014193E+002	1.6154511E-002	1.0145785E-003	1.6186340E-002	3.5937216E+000	7.167823637682887E-007
3.1622997E+005	6.1922073E+001	3.6053891E+000	6.2026947E+001	-3.3322628E+000	7.602480974426726E+000	-3.3250626E-002	1.4669825E-003	1.3959342E-001	4.7163761E-004	1.000000000000000E+000	11	2.7440647E-002	4.4239880E-004	3.659126020185391E-006	0.0000000E+000	-1.0009383E+002	1.6094767E-002	9.3711162E-004	1.6122025E-002	3.3322628E+000	8.870860137544191E-007
2.8183453E+005	6.2084099E+001	3.3518546E+000	6.2174515E+001	-3.0903380E+000	8.197491215978516E+000	-3.3265911E-002	1.5545166E-003	1.6847706E-001	4.8965059E-004	1.000000000000000E+000	11	3.3189319E-002	5.3380907E-004	3.089555018135191E-006	0.0000000E+000	-1.0009383E+002	1.6060371E-002	8.6708233E-004	1.6083760E-002	3.0903380E+000	-5.695710020501995E-007
2.5118764E+005	6.2200085E+001	3.1448131E+000	6.2279533E+001	-2.8943887E+000	8.792489724262850E+000	-3.3270925E-002	1.5578672E-003	2.0147772E-001	5.1371945E-004	1.000000000000000E+000	11	3.9674003E-002	6.3703116E-004	3.283490338615795E-006	0.0000000E+000	-1.0010184E+002	1.6036157E-002	8.1078213E-004	1.6056640E-002	2.8943887E+000	1.939353204806037E-007
2.2387173E+005	6.2269989E+001	2.9664319E+000	6.2340607E+001	-2.7274075E+000	9.389489965949906E+000	-3.3265501E-002	1.6173425E-003	2.3965499E-001	5.4264173E-004	1.000000000000000E+000	11	4.6948984E-002	7.5310440E-004	3.876790028718662E-006	0.0000000E+000	-1.0010184E+002	1.6022738E-002	7.6329481E-004	1.6040908E-002	2.7274075E+000	5.932996901028673E-007
1.9954350E+005	6.2321953E+001	2.8224688E+000	6.2385834E+001	-2.5930688E+000	9.986478554288624E+000	-3.3276223E-002	1.5043491E-003	2.8258780E-001	5.7841523E-004	1.000000000000000E+000	11	5.4956209E-002	8.8090845E-004	2.894187795224651E-006	0.0000000E+000	-1.0009383E+002	1.6012866E-002	7.2519894E-004	1.6029280E-002	2.5930688E+000	-9.826022334940109E-007
1.7783180E+005	6.2353821E+001	2.7245538E+000	6.2413319E+001	-2.5019507E+000	1.058248431593529E+001	-3.3278663E-002	1.3556735E-003	3.2848483E-001	6.2596716E-004	1.000000000000000E+000	11	6.3673645E-002	1.0201932E-003	2.880805926623806E-006	0.0000000E+000	-1.0007779E+002	1.6006948E-002	6.9942448E-004	1.6022222E-002	2.5019507E+000	-1.338186860084539E-008
1.5848613E+005	6.2366833E+001	2.6624749E+000	6.2423637E+001	-2.4445045E+000	1.117848925091675E+001	-3.3259165E-002	1.3889427E-003	3.7717539E-001	6.8614556E-004	1.000000000000000E+000	11	7.3050126E-002	1.1702318E-003	8.979177744671082E-007	0.0000000E+000	-1.0007779E+002	1.6004996E-002	6.8326219E-004	1.6019573E-002	2.4445045E+000	-1.982888152156698E-006
1.4125594E+005	6.2371288E+001	2.6313856E+000	6.2426773E+001	-2.4158218E+000	1.177449445254751E+001	-3.3248909E-002	1.4997172E-003	4.2818248E-001	7.6077483E-004	1.000000000000000E+000	11	8.3067283E-002	1.3306355E-003	2.278554375516251E-008	0.0000000E+000	-1.0010986E+002	1.6004533E-002	6.7521597E-004	1.6018769E-002	2.4158218E+000	-8.751322307119457E-007
1.2590930E+005	6.2371830E+001	2.6376779E+000	6.2427578E+001	-2.4215710E+000	1.237148589422577E+001	-3.3254202E-002	1.4486159E-003	4.7922623E-001	8.5552188E-004	1.000000000000000E+000	11	9.3876101E-002	1.5037601E-003	5.764529628989597E-007	0.0000000E+000	-1.0014193E+002	1.6004257E-002	6.7681319E-004	1.6018562E-002	2.4215710E+000	5.536674191437973E-007
1.1220494E+005	6.2371521E+001	2.6749644E+000	6.2428856E+001	-2.4557731E+000	1.296747472256538E+001	-3.3215147E-002	1.8933526E-003	5.3026158E-001	9.7354362E-004	1.000000000000000E+000	11	1.0557195E-001	1.6910761E-003	-5.977715565564318E-007	0.0000000E+000	-1.0010184E+002	1.6003523E-002	6.8635255E-004	1.6018234E-002	2.4557731E+000	-1.174224519455391E-006
1.0000371E+005	6.2380547E+001	2.7463703E+000	6.2440971E+001	-2.5208802E+000	1.342749111776357E+001	-3.3235095E-002	1.6207182E-003	5.7948858E-001	1.1210470E-003	1.000000000000000E+000	11	1.1830509E-001	1.8946710E-003	-1.706154050111460E-006	0.0000000E+000	-1.0013391E+002	1.5999626E-002	7.0440071E-004	1.6015125E-002	2.5208802E+000	-1.108382493555028E-006
8.9129305E+004	6.2384521E+001	2.8467498E+000	6.2449440E+001	-2.6127262E+000	1.388647764621419E+001	-3.3241842E-002	1.3062637E-003	6.2726390E-001	1.3034423E-003	1.000000000000000E+000	11	1.3215838E-001	2.1162461E-003	-1.849246346107167E-006	0.0000000E+000	-1.0010986E+002	1.5996307E-002	7.2994846E-004	1.6012954E-002	2.6127262E+000	-1.430922959957063E-007
7.9433273E+004	6.2379917E+001	2.9775689E+000	6.2450939E+001	-2.7328143E+000	1.448248783449526E+001	-3.3167813E-002	1.7816594E-003	6.7290831E-001	1.5296834E-003	1.000000000000000E+000	11	1.2971410E-001	2.0770561E-003	-4.900912313101193E-006	0.0000000E+000	-1.0006175E+002	1.5994359E-002	7.6345570E-004	1.6012570E-002	2.7328143E+000	-3.051665966994026E-006
7.0794977E+004	6.2376717E+001	3.1529469E+000	6.2456352E+001	-2.8936586E+000	1.507749055614113E+001	-3.3148292E-002	1.5173876E-003	7.1301883E-001	1.8171095E-003	1.000000000000000E+000	11	1.2963058E-001	2.0755387E-003	-6.249221532327485E-006	0.0000000E+000	-1.0005373E+002	1.5990768E-002	8.0828299E-004	1.6011182E-002	2.8936586E+000	-1.348309219226292E-006
6.3093828E+004	6.2374947E+001	3.3583944E+000	6.2465294E+001	-3.0819457E+000	1.567348087774008E+001	-3.3117104E-002	1.5987866E-003	7.5110656E-001	2.1711376E-003	1.000000000000000E+000	11	1.2958449E-001	2.0745038E-003	-7.710920036136586E-006	0.0000000E+000	-1.0013391E+002	1.5985735E-002	8.6070452E-004	1.6008889E-002	3.0819457E+000	-1.461698503809101E-006
5.6237012E+004	6.2368988E+001	3.6025794E+000	6.2472950E+001	-3.3058653E+000	1.627049445276498E+001	-3.3097867E-002	1.6409734E-003	7.8556895E-001	2.6123263E-003	1.000000000000000E+000	11	1.2948488E-001	2.0726551E-003	-2.533682206391960E-006	0.0000000E+000	-1.0012590E+002	1.5980290E-002	9.2305912E-004	1.6006928E-002	3.3058653E+000	5.177237829744627E-006
5.0122477E+004	6.2370808E+001	3.8906188E+000	6.2492035E+001	-3.5694196E+000	1.686749256114126E+001	-3.3076297E-002	1.5946978E-003	8.1614798E-001	3.1634206E-003	1.000000000000000E+000	11	1.2953177E-001	2.0727725E-003	-2.353555322262562E-006	0.0000000E+000	-1.0006977E+002	1.5970996E-002	9.9625229E-004	1.6002038E-002	3.5694196E+000	1.801268841293977E-007
4.4666715E+004	6.2373131E+001	4.2258434E+000	6.2516121E+001	-3.8759243E+000	1.746247330939514E+001	-3.3065762E-002	1.5318801E-003	8.4318465E-001	3.8527024E-003	1.000000000000000E+000	11	1.2941977E-001	2.0701825E-003	-3.173245578499821E-006	0.0000000E+000	-1.0005373E+002	1.5959289E-002	1.0812581E-003	1.5995875E-002	3.8759243E+000	-8.196902562372592E-007
3.9814063E+004	6.2377502E+001	4.6121778E+000	6.2547783E+001	-4.2287412E+000	1.805747584431083E+001	-3.3043839E-002	1.5058621E-003	8.6671752E-001	4.7126571E-003	1.000000000000000E+000	11	1.2934977E-001	2.0680153E-003	-3.690257607998016E-006	0.0000000E+000	-1.0005373E+002	1.5944252E-002	1.1789141E-003	1.5987776E-002	4.2287412E+000	-5.170120294981945E-007
3.5480996E+004	6.2384403E+001	5.0571346E+000	6.2589043E+001	-4.6344957E+000	1.865448387266952E+001	-3.3043969E-002	1.3557018E-003	8.8699222E-001	5.7907156E-003	1.000000000000000E+000	11	1.2928450E-001	2.0656092E-003	-7.140188427486768E-007	0.0000000E+000	-1.0004572E+002	1.5924998E-002	1.2909453E-003	1.5977237E-002	4.6344957E+000	2.976238765249339E-006
3.1621143E+004	6.2404682E+001	5.5586982E+000	6.2651764E+001	-5.0901885E+000	1.911449221454677E+001	-3.3031255E-002	1.5277949E-003	9.0546042E-001	7.1276943E-003	1.000000000000000E+000	11	1.4025749E-001	2.2386839E-003	1.332863941982699E-006	0.0000000E+000	-1.0006175E+002	1.5898297E-002	1.4161411E-003	1.5961243E-002	5.0901885E+000	2.046882784731376E-006
2.8188096E+004	6.2425293E+001	6.1286554E+000	6.2725414E+001	-5.6070929E+000	1.971047685618396E+001	-3.3009443E-002	1.5837330E-003	9.2127484E-001	8.7949326E-003	1.000000000000000E+000	11	1.3028693E-001	2.0770996E-003	2.989535247001590E-007	0.0000000E+000	-1.0010184E+002	1.5866222E-002	1.5576796E-003	1.5942501E-002	5.6070929E+000	-1.033910417282540E-006
2.5116910E+004	6.2456219E+001	6.7689638E+000	6.2821957E+001	-6.1855354E+000	2.017048015803448E+001	-3.3000700E-002	1.5701670E-003	9.3612045E-001	1.0868089E-002	1.000000000000000E+000	11	1.3979042E-001	2.2251841E-003	7.979367408487532E-007	0.0000000E+000	-1.0006977E+002	1.5825329E-002	1.7151388E-003	1.5918002E-002	6.1855354E+000	4.989832161485941E-007
2.2389027E+004	6.2489628E+001	7.4912500E+000	6.2937050E+001	-6.8359895E+000	2.076549423960387E+001	-3.2979634E-002	1.7106639E-003	9.4892222E-001	1.3443936E-002	1.000000000000000E+000	11	1.3017303E-001	2.0683052E-003	-2.339339451566856E-006	0.0000000E+000	-1.0006175E+002	1.5775938E-002	1.8912177E-003	1.5888892E-002	6.8359895E+000	-3.137276192415609E-006
1.9948783E+004	6.2540798E+001	8.3051529E+000	6.3089832E+001	-7.5643792E+000	2.122547690148349E+001	-3.2986198E-002	1.5848510E-003	9.6062988E-001	1.6646871E-002	1.000000000000000E+000	11	1.3791712E-001	2.1860434E-003	-3.402626001749822E-006	0.0000000E+000	-1.0006977E+002	1.5712479E-002	2.0865507E-003	1.5850415E-002	7.5643792E+000	-1.063286550182966E-006
1.7786895E+004	6.2592831E+001	9.2085285E+000	6.3266575E+001	-8.3692017E+000	2.182148506309022E+001	-3.2973409E-002	1.6255483E-003	9.7169453E-001	2.0585509E-002	1.000000000000000E+000	11	1.2969944E-001	2.0500468E-003	-3.295434773265798E-006	0.0000000E+000	-1.0007779E+002	1.5637811E-002	2.3006026E-003	1.5806135E-002	8.3692017E+000	1.071912284840234E-007
1.5847686E+004	6.2668102E+001	1.0236600E+001	6.3498653E+001	-9.2771196E+000	2.228148247164791E+001	-3.2973129E-002	1.6006479E-003	9.8106670E-001	2.5496524E-002	1.000000000000000E+000	11	1.3562503E-001	2.1358726E-003	-3.474237245093617E-006	0.0000000E+000	-1.0003770E+002	1.5542379E-002	2.5387895E-003	1.5748365E-002	9.2771196E+000	-1.788024718278189E-007
1.4121879E+004	6.2749714E+001	1.1377476E+001	6.3772827E+001	-1.0276947E+001	2.287649367321865E+001	-3.2961383E-002	1.7249750E-003	9.9056214E-001	3.1528421E-002	1.000000000000000E+000	11	1.2922068E-001	2.0262655E-003	-2.169221151309709E-006	0.0000000E+000	-1.0008581E+002	1.5429094E-002	2.7975291E-003	1.5680660E-002	1.0276947E+001	1.305016093783908E-006
1.2590932E+004	6.2856464E+001	1.2649619E+001	6.4116676E+001	-1.1378567E+001	2.333548393499223E+001	-3.2965485E-002	1.6432063E-003	9.9927455E-001	3.8895354E-002	1.000000000000000E+000	11	1.3346434E-001	2.0815853E-003	-2.809521709374773E-007	0.0000000E+000	-1.0010986E+002	1.5290017E-002	3.0770565E-003	1.5596567E-002	1.1378567E+001	1.888268980372232E-006
1.1217711E+004	6.2984352E+001	1.4074361E+001	6.4537712E+001	-1.2596266E+001	2.379549611688708E+001	-3.2963134E-002	1.6417194E-003	1.0080620E+000	4.7942143E-002	1.000000000000000E+000	11	1.3712427E-001	2.1247154E-003	1.336391792283393E-006	0.0000000E+000	-1.0010986E+002	1.5121871E-002	3.3791037E-003	1.5494816E-002	1.2596266E+001	1.617343963220871E-006
1.0002229E+004	6.3138107E+001	1.5654984E+001	6.5049973E+001	-1.3925550E+001	2.425549445868819E+001	-3.2965653E-002	1.5770448E-003	1.0164140E+000	5.8868330E-002	1.000000000000000E+000	11	1.4018537E-001	2.1550411E-003	8.696976411156356E-007	0.0000000E+000	-1.0005373E+002	1.4920979E-002	3.6996312E-003	1.5372797E-002	1.3925550E+001	-4.666941511677578E-007
8.9149297E+003	6.3306396E+001	1.7423878E+001	6.5660423E+001	-1.5388551E+001	2.487991638173116E+001	-3.2946844E-002	1.7985657E-003	1.0246072E+000	7.2150551E-002	1.000000000000000E+000	11	1.2951256E-001	1.9724602E-003	-1.042957439436577E-006	0.0000000E+000	-1.0010184E+002	1.4683859E-002	4.0414520E-003	1.5229874E-002	1.5388551E+001	-1.912655080552213E-006
7.9439976E+003	6.3515099E+001	1.9403080E+001	6.6412704E+001	-1.6987267E+001	2.540597334006452E+001	-3.2935973E-002	1.9121186E-003	1.0325483E+000	8.8135198E-002	1.000000000000000E+000	11	1.3133727E-001	1.9775925E-003	1.306504466273408E-006	0.0000000E+000	-1.0008581E+002	1.4400403E-002	4.3991455E-003	1.5057360E-002	1.6987267E+001	2.349461905709985E-006
7.0822334E+003	6.3753948E+001	2.1585533E+001	6.7308998E+001	-1.8704847E+001	2.598288318078266E+001	-3.2926522E-002	2.0440726E-003	1.0410873E+000	1.0706966E-001	1.000000000000000E+000	11	1.3273457E-001	1.9720183E-003	9.342969306356584E-007	0.0000000E+000	-1.0007779E+002	1.4072162E-002	4.7644912E-003	1.4856854E-002	1.8704847E+001	-3.722075356377497E-007
6.3077344E+003	6.4035645E+001	2.4038460E+001	6.8398911E+001	-2.0575727E+001	2.661755059755524E+001	-3.2918151E-002	1.8608291E-003	1.0496393E+000	1.2964477E-001	1.000000000000000E+000	11	1.3379531E-001	1.9561029E-003	1.159344730911673E-006	0.0000000E+000	-1.0005373E+002	1.3687477E-002	5.1381676E-003	1.4620116E-002	2.0575727E+001	2.250478002760145E-007
5.6210552E+003	6.4361580E+001	2.6749622E+001	6.9699036E+001	-2.2568491E+001	2.731825404419214E+001	-3.2913268E-002	1.9576580E-003	1.0584848E+000	1.5590727E-001	1.000000000000000E+000	11	1.3453266E-001	1.9301940E-003	1.595218447250469E-006	0.0000000E+000	-1.0006175E+002	1.3248697E-002	5.5063539E-003	1.4347401E-002	2.2568491E+001	4.358737163387963E-007
5.0116035E+003	6.4734589E+001	2.9748795E+001	7.1242950E+001	-2.4681156E+001	2.807866640035354E+001	-3.2910302E-002	1.9024605E-003	1.0675151E+000	1.8613541E-001	1.000000000000000E+000	11	1.3500006E-001	1.8949253E-003	2.799047108467979E-006	0.0000000E+000	-1.0004572E+002	1.2754182E-002	5.8611869E-003	1.4036477E-002	2.4681156E+001	1.203828661217510E-006
4.4664292E+003	6.5167084E+001	3.3082451E+001	7.3083496E+001	-2.6914894E+001	2.883770430307050E+001	-3.2906592E-002	2.0031882E-003	1.0771148E+000	2.2070833E-001	1.000000000000000E+000	11	1.3523898E-001	1.8504722E-003	1.641990899399389E-006	0.0000000E+000	-1.0006977E+002	1.2200838E-002	6.1938269E-003	1.3682980E-002	2.6914894E+001	-1.157056209068590E-006
3.9812742E+003	6.5671242E+001	3.6773575E+001	7.5266243E+001	-2.9247286E+001	2.959669964579371E+001	-3.2902490E-002	2.1044759E-003	1.0870817E+000	2.5949764E-001	1.000000000000000E+000	11	1.3530344E-001	1.7976643E-003	2.117888639461146E-006	0.0000000E+000	-1.0010986E+002	1.1592437E-002	6.4913551E-003	1.3286169E-002	2.9247286E+001	4.758977400617570E-007
3.5465955E+003	6.6257790E+001	4.0887859E+001	7.7858276E+001	-3.1678848E+001	3.035693941521458E+001	-3.2910656E-002	1.9688064E-003	1.0975242E+000	3.0268666E-001	1.000000000000000E+000	11	1.3522138E-001	1.7367630E-003	1.541147290677246E-006	0.0000000E+000	-1.0010986E+002	1.0930181E-002	6.7450446E-003	1.2843850E-002	3.1678848E+001	-5.767413487838993E-007
3.1610112E+003	6.6926880E+001	4.5418545E+001	8.0882950E+001	-3.4161968E+001	3.111669273131702E+001	-3.2905456E-002	1.9675039E-003	1.1085643E+000	3.4955326E-001	1.000000000000000E+000	11	1.3502385E-001	1.6693734E-003	1.098390118348309E-006	0.0000000E+000	-1.0009383E+002	1.0230258E-002	6.9425539E-003	1.2363545E-002	3.4161968E+001	-4.427571723289375E-007
2.8172952E+003	6.7689041E+001	5.0431999E+001	8.4410858E+001	-3.6688107E+001	3.187695578075363E+001	-3.2915112E-002	1.8615685E-003	1.1201639E+000	3.9985022E-001	1.000000000000000E+000	11	1.3474193E-001	1.5962630E-003	2.317516787365700E-006	0.0000000E+000	-1.0006977E+002	9.4999587E-003	7.0779840E-003	1.1846817E-002	3.6688107E+001	1.219126669017391E-006
2.5108032E+003	6.8559059E+001	5.5981182E+001	8.8511230E+001	-3.9232994E+001	3.263666485685098E+001	-3.2896191E-002	2.0663694E-003	1.1323102E+000	4.5295262E-001	1.000000000000000E+000	11	1.3441041E-001	1.5185690E-003	3.890461379972597E-006	0.0000000E+000	-1.0010986E+002	8.7512108E-003	7.1457089E-003	1.1298002E-002	3.9232994E+001	1.572944592606897E-006
2.2378516E+003	6.9545120E+001	6.2107693E+001	9.3241028E+001	-4.1766640E+001	3.339692366626696E+001	-3.2906778E-002	1.9253098E-003	1.1451001E+000	5.0806600E-001	1.000000000000000E+000	11	1.3404705E-001	1.4376402E-003	4.371008742995198E-006	0.0000000E+000	-1.0005373E+002	7.9993112E-003	7.1438327E-003	1.0724893E-002	4.1766640E+001	4.805473630226012E-007
1.9956389E+003	7.0647507E+001	6.8843887E+001	9.8643555E+001	-4.4259209E+001	3.415668650237785E+001	-3.2892033E-002	2.0910839E-003	1.1584380E+000	5.6424296E-001	1.000000000000000E+000	11	1.3367605E-001	1.3551423E-003	5.024652534720695E-006	0.0000000E+000	-1.0010184E+002	7.2603808E-003	7.0750243E-003	1.0137510E-002	4.4259209E+001	6.536437917254965E-007
1.7782927E+003	7.1879990E+001	7.6340485E+001	1.0485515E+002	-4.6723721E+001	3.491696643180330E+001	-3.2911755E-002	1.8485466E-003	1.1723626E+000	6.2143010E-001	1.000000000000000E+000	11	1.3330010E-001	1.2712785E-003	4.411269363196172E-006	0.0000000E+000	-1.0008581E+002	6.5377522E-003	6.9434512E-003	9.5369658E-003	4.6723721E+001	-6.133831715245226E-007
1.5855076E+003	7.3256874E+001	8.4577530E+001	1.1189249E+002	-4.9102509E+001	3.567668588124070E+001	-3.2905120E-002	1.9377476E-003	1.1868527E+000	6.7811751E-001	1.000000000000000E+000	11	1.3294908E-001	1.1881860E-003	5.513911516864836E-006	0.0000000E+000	-1.0006175E+002	5.8512213E-003	6.7554321E-003	8.9371502E-003	4.9102509E+001	1.102642153668663E-006
1.4118373E+003	7.4787033E+001	9.3786629E+001	1.1995429E+002	-5.1430553E+001	3.643822013071622E+001	-3.2913957E-002	1.8916569E-003	1.2019726E+000	7.3475885E-001	1.000000000000000E+000	11	1.3261691E-001	1.1055620E-003	5.369522145228176E-006	0.0000000E+000	-1.0011788E+002	5.1975027E-003	6.5179248E-003	8.3365086E-003	5.1430553E+001	-1.443893716366600E-007
1.2587914E+003	7.6458771E+001	1.0385055E+002	1.2896077E+002	-5.3638069E+001	3.719794566015480E+001	-3.2913268E-002	1.8067228E-003	1.2174680E+000	7.8951412E-001	1.000000000000000E+000	11	1.3231164E-001	1.0259837E-003	6.392458622046332E-006	0.0000000E+000	-1.0007779E+002	4.5973975E-003	6.2444410E-003	7.7542961E-003	5.3638069E+001	1.022936476818156E-006
1.1217948E+003	7.8302238E+001	1.1502190E+002	1.3914481E+002	-5.5754555E+001	3.795642857611529E+001	-3.2910209E-002	1.9178580E-003	1.2334630E+000	8.4285569E-001	1.000000000000000E+000	11	1.3203630E-001	9.4891293E-004	6.214982242439874E-006	0.0000000E+000	-1.0008581E+002	4.0442706E-003	5.9408220E-003	7.1867579E-003	5.5754555E+001	-1.774763796064582E-007
1.0003201E+003	8.0306252E+001	1.2732630E+002	1.5053598E+002	-5.7759869E+001	3.871569621225353E+001	-3.2907579E-002	1.9894100E-003	1.2495770E+000	8.9396113E-001	1.000000000000000E+000	11	1.3179854E-001	8.7552844E-004	6.249172811098914E-006	0.0000000E+000	-1.0010986E+002	3.5437963E-003	5.6187212E-003	6.6429302E-003	5.7759869E+001	3.419056865904003E-008
8.9142657E+002	8.2508049E+001	1.4101031E+002	1.6337529E+002	-5.9667213E+001	3.947445552822319E+001	-3.2908216E-002	1.9033605E-003	1.2661456E+000	9.4321930E-001	1.000000000000000E+000	11	1.3159221E-001	8.0545968E-004	6.322940203636083E-006	0.0000000E+000	-1.0007779E+002	3.0911751E-003	5.2829697E-003	6.1208769E-003	5.9667213E+001	7.376739253716915E-008
7.9423773E+002	8.4900673E+001	1.5619580E+002	1.7777866E+002	-6.1473579E+001	4.023391924434691E+001	-3.2910544E-002	1.8076485E-003	1.2829220E+000	9.9032956E-001	1.000000000000000E+000	11	1.3141222E-001	7.3919009E-004	6.686780105180029E-006	0.0000000E+000	-1.0007779E+002	2.6862840E-003	4.9420837E-003	5.6249723E-003	6.1473579E+001	3.638399015439464E-007
7.0750946E+002	8.7516190E+001	1.7306007E+002	1.9393007E+002	-6.3174351E+001	4.099646437386400E+001	-3.2906666E-002	1.8896044E-003	1.2998433E+000	1.0351290E+000	1.000000000000000E+000	11	1.3126001E-001	6.7684194E-004	7.214408249927348E-006	0.0000000E+000	-1.0008581E+002	2.3270093E-003	4.6015759E-003	5.1564979E-003	6.3174351E+001	5.276281447473188E-007
6.3100964E+002	9.0292496E+001	1.9157043E+002	2.1178282E+002	-6.4764191E+001	4.175442059655325E+001	-3.2910675E-002	1.8760314E-003	1.3166054E+000	1.0772864E+000	1.000000000000000E+000	11	1.3112178E-001	6.1913324E-004	7.680845017014589E-006	0.0000000E+000	-1.0009383E+002	2.0131224E-003	4.2711720E-003	4.7218185E-003	6.4764191E+001	4.664367670872405E-007
5.6233929E+002	9.3332565E+001	2.1224013E+002	2.3185521E+002	-6.6262512E+001	4.251092705916381E+001	-3.2913398E-002	1.8780757E-003	1.3335036E+000	1.1174176E+000	1.000000000000000E+000	11	1.3101938E-001	5.6509138E-004	8.599315395662820E-006	0.0000000E+000	-1.0002968E+002	1.7361991E-003	3.9481511E-003	4.3130368E-003	6.6262512E+001	9.184703786482314E-007
5.0144415E+002	9.6607292E+001	2.3503484E+002	2.5411482E+002	-6.7655670E+001	4.326815448180423E+001	-3.2908887E-002	1.8613485E-003	1.3504090E+000	1.1552336E+000	1.000000000000000E+000	11	1.3092150E-001	5.1520608E-004	8.704237875716192E-006	0.0000000E+000	-1.0005373E+002	1.4960634E-003	3.6397558E-003	3.9352290E-003	6.7655670E+001	1.049224800533714E-007
4.4685895E+002	1.0018781E+002	2.6060388E+002	2.7919882E+002	-6.8971001E+001	4.402491987773101E+001	-3.2910302E-002	1.8914567E-003	1.3666862E+000	1.1907029E+000	1.000000000000000E+000	11	1.3085210E-001	4.6866995E-004	9.510201526210747E-006	0.0000000E+000	-1.0008581E+002	1.2852505E-003	3.3431335E-003	3.5816771E-003	6.8971001E+001	8.059636504945551E-007
3.9808920E+002	1.0402261E+002	2.8899283E+002	3.0714420E+002	-7.0203720E+001	4.504073248599889E+001	-3.2917127E-002	1.8091286E-004	1.3834156E+000	1.2247351E+000	1.000000000000000E+000	12	1.3340768E-001	4.3434871E-004	9.721447359468181E-006	0.0000000E+000	-1.0009383E+002	1.1026639E-003	3.0633912E-003	3.2557999E-003	7.0203720E+001	2.112458332574340E-007
3.5465955E+002	1.0819389E+002	3.2059109E+002	3.3835568E+002	-7.1351357E+001	4.580093918877537E+001	-3.2921806E-002	1.5165150E-004	1.3997711E+000	1.2566462E+000	1.000000000000000E+000	12	1.3285860E-001	3.9265960E-004	9.646866269241500E-006	0.0000000E+000	-1.0008581E+002	9.4505236E-004	2.8002996E-003	2.9554698E-003	7.1351357E+001	-7.458109022668032E-008
3.1631586E+002	1.1269742E+002	3.5537057E+002	3.7281223E+002	-7.2404800E+001	4.655791559806676E+001	-3.2917947E-002	1.6612238E-004	1.4158515E+000	1.2864720E+000	1.000000000000000E+000	12	1.3241598E-001	3.5518143E-004	9.866812101403613E-006	0.0000000E+000	-1.0003770E+002	8.1083720E-004	2.5568260E-003	2.6823154E-003	7.2404800E+001	2.199458321621124E-007
2.8189429E+002	1.1764585E+002	3.9432608E+002	4.1150165E+002	-7.3387703E+001	4.731339774056687E+001	-3.2913864E-002	1.8111571E-004	1.4317868E+000	1.3147591E+000	1.000000000000000E+000	12	1.3205175E-001	3.2090212E-004	9.648802144101460E-006	0.0000000E+000	-1.0003770E+002	6.9475797E-004	2.3286936E-003	2.4301240E-003	7.3387703E+001	-2.180099573021526E-007
2.5104436E+002	1.2304470E+002	4.3798416E+002	4.5493970E+002	-7.4308136E+001	4.806990998986294E+001	-3.2914702E-002	1.7874653E-004	1.4474756E+000	1.3415918E+000	1.000000000000000E+000	12	1.3175106E-001	2.8960116E-004	9.481047749628588E-006	0.0000000E+000	-1.0006977E+002	5.9450459E-004	2.1161709E-003	2.1980936E-003	7.4308136E+001	-1.677543944728721E-007
2.2392513E+002	1.2884100E+002	4.8588681E+002	5.0267883E+002	-7.5148849E+001	4.883270415945299E+001	-3.2914907E-002	1.8200879E-004	1.4627908E+000	1.3666939E+000	1.000000000000000E+000	12	1.3151108E-001	2.6162047E-004	9.378716847869024E-006	0.0000000E+000	-1.0003770E+002	5.0988578E-004	1.9228877E-003	1.9893418E-003	7.5148849E+001	-1.023309017595641E-007
1.9955299E+002	1.3520567E+002	5.3964563E+002	5.5632544E+002	-7.5934357E+001	4.959421016889974E+001	-3.2909427E-002	1.7072445E-004	1.4779278E+000	1.3906335E+000	1.000000000000000E+000	12	1.3131598E-001	2.3604165E-004	9.654253890388645E-006	0.0000000E+000	-1.0009383E+002	4.3685472E-004	1.7436160E-003	1.7975090E-003	7.5934357E+001	2.755370425196213E-007
1.7778128E+002	1.4215128E+002	5.9970599E+002	6.1632318E+002	-7.6665009E+001	5.036224052539910E+001	-3.2911718E-002	1.6606200E-004	1.4927796E+000	1.4133688E+000	1.000000000000000E+000	12	1.3115732E-001	2.1280609E-004	9.909488313773990E-006	0.0000000E+000	-1.0006175E+002	3.7422578E-004	1.5787792E-003	1.6225254E-003	7.6665009E+001	2.552344233853447E-007
1.5842838E+002	1.4982336E+002	6.6626819E+002	6.8290582E+002	-7.7326736E+001	5.112874797516270E+001	-3.2920089E-002	1.7415558E-004	1.5077804E+000	1.4352072E+000	1.000000000000000E+000	12	1.3102464E-001	1.9186341E-004	9.798687509929449E-006	0.0000000E+000	-1.0006175E+002	3.2126092E-004	1.4286552E-003	1.4643307E-003	7.7326736E+001	-1.108008038445405E-007
1.4131134E+002	1.5806372E+002	7.3997845E+002	7.5667181E+002	-7.7942490E+001	5.188187763758469E+001	-3.2919679E-002	1.8124208E-004	1.5220330E+000	1.4556170E+000	1.000000000000000E+000	12	1.3092870E-001	1.7303234E-004	9.981191732173102E-006	0.0000000E+000	-1.0007779E+002	2.7606869E-004	1.2924208E-003	1.3215769E-003	7.7942490E+001	1.825042222436522E-007
1.2584569E+002	1.6740755E+002	8.2319043E+002	8.4004034E+002	-7.8504845E+001	5.263739740676829E+001	-3.2914441E-002	1.6111902E-004	1.5363193E+000	1.4753050E+000	1.000000000000000E+000	12	1.3084687E-001	1.5576261E-004	9.911190094233866E-006	0.0000000E+000	-1.0006175E+002	2.3723273E-004	1.1665410E-003	1.1904190E-003	7.8504845E+001	-7.000163793923595E-008
1.1218996E+002	1.7735271E+002	9.1489453E+002	9.3192596E+002	-7.9029259E+001	5.338285192221520E+001	-3.2915298E-002	1.4709434E-004	1.5505834E+000	1.4944258E+000	1.000000000000000E+000	12	1.3077399E-001	1.4032659E-004	9.847953533147422E-006	0.0000000E+000	-1.0005373E+002	2.0420902E-004	1.0534361E-003	1.0730466E-003	7.9029259E+001	-6.323656108644357E-008
1.0003201E+002	1.8825569E+002	1.0170657E+003	1.0343418E+003	-7.9513412E+001	5.414267193165870E+001	-3.2921415E-002	1.4862252E-004	1.5643435E+000	1.5125231E+000	1.000000000000000E+000	12	1.3071862E-001	1.2637855E-004	9.942229261886193E-006	0.0000000E+000	-1.0009383E+002	1.7596249E-004	9.5065049E-004	9.6679840E-004	7.9513412E+001	9.427572873877042E-008
8.9115974E+001	2.0058229E+002	1.1317533E+003	1.1493906E+003	-7.9949745E+001	5.490974455475225E+001	-3.2916155E-002	1.5971858E-004	1.5780212E+000	1.5299634E+000	1.000000000000000E+000	12	1.3067755E-001	1.1369290E-004	1.008060824835977E-005	0.0000000E+000	-1.0006175E+002	1.5182993E-004	8.5667573E-004	8.7002624E-004	7.9949745E+001	1.383789864735761E-007
7.9415527E+001	2.1437352E+002	1.2592548E+003	1.2773717E+003	-8.0338676E+001	5.567423589769169E+001	-3.2920480E-002	1.5850626E-004	1.5914797E+000	1.5466560E+000	1.000000000000000E+000	12	1.3064763E-001	1.0227848E-004	9.999313696119719E-006	0.0000000E+000	-1.0008581E+002	1.3138224E-004	7.7175419E-004	7.8285747E-004	8.0338676E+001	-8.129455224004925E-008
7.0838745E+001	2.2904422E+002	1.3998496E+003	1.4184640E+003	-8.0707573E+001	5.642539556001429E+001	-3.2920256E-002	1.4481758E-004	1.6049736E+000	1.5631262E+000	1.000000000000000E+000	12	1.3061413E-001	9.2081384E-005	1.007502010250028E-005	0.0000000E+000	-1.0008581E+002	1.1383680E-004	6.9573644E-004	7.0498796E-004	8.0707573E+001	7.570640638055636E-008
6.3082302E+001	2.4593896E+002	1.5592135E+003	1.5784906E+003	-8.1036430E+001	5.720585775712971E+001	-3.2917053E-002	1.7941177E-004	1.6181062E+000	1.5788257E+000	1.000000000000000E+000	12	1.3058925E-001	8.2730454E-005	1.014602752258725E-005	0.0000000E+000	-1.0006175E+002	9.8705961E-005	6.2577985E-004	6.3351658E-004	8.1036430E+001	7.100742008697002E-008
5.6241817E+001	2.6395444E+002	1.7353795E+003	1.7553387E+003	-8.1351494E+001	5.795035547247971E+001	-3.2916419E-002	1.6971389E-004	1.6306710E+000	1.5937984E+000	1.000000000000000E+000	12	1.3057183E-001	7.4385542E-005	1.018659060875062E-005	0.0000000E+000	-1.0002166E+002	8.5665721E-005	5.6321290E-004	5.6969060E-004	8.1351494E+001	4.056308616337594E-008
5.0144413E+001	2.8491614E+002	1.9302054E+003	1.9511202E+003	-8.1603249E+001	5.870717910843086E+001	-3.2921638E-002	1.8698284E-004	1.6443491E+000	1.6092852E+000	1.000000000000000E+000	12	1.3055798E-001	6.6914370E-005	1.023483247366191E-005	0.0000000E+000	-1.0004572E+002	7.4842617E-005	5.0703209E-004	5.1252608E-004	8.1603249E+001	4.824186491128468E-008
4.4671219E+001	3.0768655E+002	2.1499031E+003	2.1718091E+003	-8.1855339E+001	5.947120175804594E+001	-3.2916661E-002	1.8851161E-004	1.6571943E+000	1.6239322E+000	1.000000000000000E+000	12	1.3054246E-001	6.0107701E-005	1.029654757134535E-005	0.0000000E+000	-1.0008581E+002	6.5232663E-005	4.5580135E-004	4.6044562E-004	8.1855339E+001	6.171509768344357E-008
3.9808922E+001	3.3260187E+002	2.3941047E+003	2.4170977E+003	-8.2090790E+001	6.023372000763629E+001	-3.2911196E-002	1.7182050E-004	1.6699235E+000	1.6383039E+000	1.000000000000000E+000	12	1.3053641E-001	5.4005435E-005	1.025263892342991E-005	0.0000000E+000	-1.0006977E+002	5.6929337E-005	4.0978377E-004	4.1371933E-004	8.2090790E+001	-4.390864791543704E-008
3.5465305E+001	3.6125842E+002	2.6684590E+003	2.6928018E+003	-8.2290115E+001	6.123210984168691E+001	-3.2916550E-002	1.1903236E-005	1.6817285E+000	1.6514605E+000	1.000000000000000E+000	13	1.3080491E-001	4.8575766E-005	1.034276411023125E-005	0.0000000E+000	-1.0011788E+002	4.9820654E-005	3.6800336E-004	3.7136042E-004	8.2290115E+001	9.012518680133878E-008
3.1629551E+001	3.9335104E+002	2.9699924E+003	2.9959272E+003	-8.2455551E+001	6.195644955607713E+001	-3.2911457E-002	1.9081333E-005	1.6942276E+000	1.6650218E+000	1.000000000000000E+000	13	1.3074347E-001	4.3640404E-005	1.031439068923484E-005	0.0000000E+000	-1.0007779E+002	4.3824595E-005	3.3089699E-004	3.3378648E-004	8.2455551E+001	-2.837342099640737E-008
2.8170074E+001	4.2932089E+002	3.3097664E+003	3.3374946E+003	-8.2609238E+001	6.276176250104618E+001	-3.2907505E-002	1.5563073E-005	1.7070049E+000	1.6787589E+000	1.000000000000000E+000	13	1.3069324E-001	3.9159087E-005	1.022420822950688E-005	0.0000000E+000	-1.0008581E+002	3.8542596E-005	2.9713663E-004	2.9962594E-004	8.2609238E+001	-9.018245972796087E-008
2.5104435E+001	4.6985904E+002	3.6866199E+003	3.7164409E+003	-8.2736824E+001	6.351794373695157E+001	-3.2910284E-002	1.6042148E-005	1.7196550E+000	1.6921685E+000	1.000000000000000E+000	13	1.3065621E-001	3.5156274E-005	1.022045276967482E-005	0.0000000E+000	-1.0004572E+002	3.4018321E-005	2.6691557E-004	2.6907463E-004	8.2736824E+001	-3.755459832064360E-009
2.2385387E+001	5.1587561E+002	4.1035991E+003	4.1358979E+003	-8.2834763E+001	6.420441259621293E+001	-3.2914553E-002	6.3636653E-006	1.7325692E+000	1.7056143E+000	1.000000000000000E+000	13	1.3062370E-001	3.1582913E-005	1.031832725561233E-005	0.0000000E+000	-1.0008581E+002	3.0158208E-005	2.3989724E-004	2.4178546E-004	8.2834763E+001	9.787448593750965E-008
1.9955299E+001	5.6798932E+002	4.5696128E+003	4.6047773E+003	-8.2914642E+001	6.496619719234877E+001	-3.2904580E-002	1.9401756E-005	1.7453499E+000	1.7187947E+000	1.000000000000000E+000	13	1.3059589E-001	2.8360957E-005	1.033177476251992E-005	0.0000000E+000	-1.0003770E+002	2.6786936E-005	2.1550737E-004	2.1716577E-004	8.2914642E+001	1.344750690759486E-008
1.7796129E+001	6.2573853E+002	5.0872227E+003	5.1255615E+003	-8.2987724E+001	6.581051635244512E+001	-3.2903254E-002	1.2990676E-005	1.7579798E+000	1.7317789E+000	1.000000000000000E+000	13	1.3057627E-001	2.5475505E-005	1.034529097569298E-005	0.0000000E+000	-1.0010986E+002	2.3818267E-005	1.9364122E-004	1.9510057E-004	8.2987724E+001	1.351621317305921E-008
1.5857576E+001	6.9203308E+002	5.6675518E+003	5.7096455E+003	-8.3038391E+001	6.653195068010245E+001	-3.2896899E-002	1.2734207E-005	1.7708746E+000	1.7448597E+000	1.000000000000000E+000	13	1.3055842E-001	2.2866290E-005	1.024479738026482E-005	0.0000000E+000	-1.0005373E+002	2.1227983E-005	1.7385100E-004	1.7514222E-004	8.3038391E+001	-1.004935954281589E-007
1.4118974E+001	7.6951251E+002	6.3165176E+003	6.3632183E+003	-8.3054146E+001	6.733422151816194E+001	-3.2900125E-002	1.8426335E-005	1.7845935E+000	1.7584947E+000	1.000000000000000E+000	13	1.3054720E-001	2.0515907E-005	1.034493165581393E-005	0.0000000E+000	-1.0007779E+002	1.9004739E-005	1.5599981E-004	1.5715318E-004	8.3054146E+001	1.001342755491052E-007
1.2600808E+001	8.5491559E+002	7.0264214E+003	7.0782397E+003	-8.3062836E+001	6.822488121385686E+001	-3.2895621E-002	1.3706445E-005	1.7975773E+000	1.7713542E+000	1.000000000000000E+000	13	1.3053851E-001	1.8442228E-005	1.035091332566455E-005	0.0000000E+000	-1.0005373E+002	1.7063672E-005	1.4024381E-004	1.4127807E-004	8.3062836E+001	5.981669850623438E-009
1.1224856E+001	9.5265729E+002	7.8280645E+003	7.8858193E+003	-8.3061356E+001	6.890892087301472E+001	-3.2894306E-002	1.0373712E-005	1.8112773E+000	1.7848432E+000	1.000000000000000E+000	13	1.3052674E-001	1.6552083E-005	1.032477288514636E-005	0.0000000E+000	-1.0009383E+002	1.5319447E-005	1.2588115E-004	1.2680990E-004	8.3061356E+001	-2.614044051819591E-008
1.0003201E+001	1.0683784E+003	8.7179219E+003	8.7831426E+003	-8.3013260E+001	6.966968648249167E+001	-3.2898184E-002	1.4840900E-005	1.8250222E+000	1.7980189E+000	1.000000000000000E+000	13	1.3052298E-001	1.4860624E-005	1.024719057266525E-005	0.0000000E+000	-1.0006977E+002	1.3849216E-005	1.1300902E-004	1.1385447E-004	8.3013260E+001	-7.758231248110297E-008
8.9183798E+000	1.1944226E+003	9.7039990E+003	9.7772305E+003	-8.2983009E+001	7.051403246924747E+001	-3.2900691E-002	1.6903854E-005	1.8390074E+000	1.8115621E+000	1.000000000000000E+000	13	1.3051963E-001	1.3349346E-005	1.036756345166694E-005	0.0000000E+000	-1.0005373E+002	1.2494711E-005	1.0151238E-004	1.0227845E-004	8.2983009E+001	1.203728790016815E-007
7.9395342E+000	1.3431261E+003	1.0811473E+004	1.0894583E+004	-8.2918343E+001	7.145168592713162E+001	-3.2902390E-002	1.6141210E-005	1.8541304E+000	1.8259494E+000	1.000000000000000E+000	13	1.3051504E-001	1.1979811E-005	1.026391929842667E-005	0.0000000E+000	-1.0008581E+002	1.1316063E-005	9.1088521E-005	9.1788737E-005	8.2918343E+001	-1.036441532402614E-007
7.0765405E+000	1.5122374E+003	1.2031419E+004	1.2126084E+004	-8.2836021E+001	7.201002304695430E+001	-3.2911029E-002	8.8950064E-006	1.8693142E+000	1.8402416E+000	1.000000000000000E+000	13	1.3050973E-001	1.0762727E-005	1.027700598129963E-005	0.0000000E+000	-1.0006175E+002	1.0284398E-005	8.1823062E-005	8.2466853E-005	8.2836021E+001	1.308668287295607E-008
6.3105822E+000	1.7452930E+003	1.3399523E+004	1.3512708E+004	-8.2578979E+001	7.263019566304865E+001	-3.2916643E-002	4.5714114E-005	1.8821808E+000	1.8507819E+000	1.000000000000000E+000	13	1.3049872E-001	9.6574813E-006	1.032696281003438E-005	0.0000000E+000	-1.0007779E+002	9.5583664E-006	7.3384537E-005	7.4004412E-005	8.2578979E+001	4.995682873474606E-008
5.6205034E+000	1.9413933E+003	1.4907725E+004	1.5033604E+004	-8.2580276E+001	7.331667252237821E+001	-3.2908626E-002	2.5995698E-005	1.8994751E+000	1.8677987E+000	1.000000000000000E+000	13	1.3050549E-001	8.6809177E-006	1.038787171563450E-005	0.0000000E+000	-1.0008581E+002	8.5898873E-006	6.5960681E-005	6.6517649E-005	8.2580276E+001	6.090890560012044E-008
5.0144415E+000	2.1653716E+003	1.6615361E+004	1.6755867E+004	-8.2574860E+001	7.407419306496740E+001	-3.2897476E-002	-1.3737571E-005	1.9102393E+000	1.8783371E+000	1.000000000000000E+000	13	1.3050774E-001	7.7887780E-006	1.041441701557963E-005	0.0000000E+000	-1.0008581E+002	7.7125651E-006	5.9180140E-005	5.9680588E-005	8.2574860E+001	2.654529994513099E-008
4.4693937E+000	2.5096978E+003	1.8426209E+004	1.8596338E+004	-8.2243889E+001	7.491551990495645E+001	-3.2892331E-002	-4.8789036E-007	1.9325713E+000	1.8973727E+000	1.000000000000000E+000	13	1.3049977E-001	7.0174979E-006	1.032648285587175E-005	0.0000000E+000	-1.0002968E+002	7.2571606E-006	5.3282074E-005	5.3774027E-005	8.2243889E+001	-8.793415970788192E-008
3.9778514E+000	2.7792505E+003	2.0570006E+004	2.0756912E+004	-8.2305260E+001	7.585216520275571E+001	-3.2901969E-002	2.5825959E-005	1.9450787E+000	1.9102073E+000	1.000000000000000E+000	13	1.3050386E-001	6.2872482E-006	1.029527533168812E-005	0.0000000E+000	-1.0006175E+002	6.4506326E-006	4.7742917E-005	4.8176724E-005	8.2305260E+001	-3.120752418362869E-008
3.5511365E+000	3.2068613E+003	2.2735951E+004	2.2960998E+004	-8.1971504E+001	7.689342567886342E+001	-3.2904103E-002	2.6004922E-005	1.9712408E+000	1.9327887E+000	1.000000000000000E+000	13	1.3050175E-001	5.6836270E-006	1.041613605303903E-005	0.0000000E+000	-1.0009383E+002	6.0827315E-006	4.3125248E-005	4.3552114E-005	8.1971504E+001	1.208607213509115E-007
3.1603966E+000	3.6350244E+003	2.5350578E+004	2.5609865E+004	-8.1839966E+001	7.805526138740242E+001	-3.2894298E-002	9.0869162E-006	1.9865097E+000	1.9464885E+000	1.000000000000000E+000	13	1.3050169E-001	5.0957583E-006	1.039072903259770E-005	0.0000000E+000	-1.0011788E+002	5.5423366E-006	3.8652117E-005	3.9047452E-005	8.1839966E+001	-2.540702044133323E-008
2.8183618E+000	4.1456343E+003	2.8058084E+004	2.8362693E+004	-8.1595253E+001	7.975464754816858E+001	-3.2897636E-002	-9.2816954E-006	2.0126367E+000	1.9696381E+000	1.000000000000000E+000	14	1.3052253E-001	4.6019090E-006	1.032680701759106E-005	0.0000000E+000	-1.0005373E+002	5.1534239E-006	3.4878922E-005	3.5257581E-005	8.1595253E+001	-6.392201500663508E-008
2.5136740E+000	4.7518877E+003	3.1258658E+004	3.1617781E+004	-8.1356171E+001	8.119868231008877E+001	-3.2900222E-002	1.8557846E-005	2.0255401E+000	1.9797882E+000	1.000000000000000E+000	14	1.3051578E-001	4.1279236E-006	1.040828197464657E-005	0.0000000E+000	-1.0010184E+002	4.7533908E-006	3.1268537E-005	3.1627773E-005	8.1356171E+001	8.147495705550997E-008
2.2398219E+000	5.2579321E+003	3.4724496E+004	3.5120313E+004	-8.1389763E+001	8.281331278671860E+001	-3.2897063E-002	-1.3119311E-005	2.0463066E+000	2.0004416E+000	1.000000000000000E+000	14	1.3051128E-001	3.7161196E-006	1.042972368815893E-005	0.0000000E+000	-1.0004572E+002	4.2628321E-006	2.8152645E-005	2.8473551E-005	8.1389763E+001	2.144171351235703E-008
1.9970604E+000	5.9276997E+003	3.8374938E+004	3.8830059E+004	-8.1219040E+001	8.461668551243201E+001	-3.2897599E-002	5.7168927E-006	2.0767357E+000	2.0283389E+000	1.000000000000000E+000	14	1.3050921E-001	3.3610359E-006	1.032517449761740E-005	0.0000000E+000	-1.0008581E+002	3.9314241E-006	2.5451394E-005	2.5753245E-005	8.1219040E+001	-1.045491905415229E-007
1.7796129E+000	6.8208975E+003	4.2491473E+004	4.3035449E+004	-8.0880455E+001	8.663484486161906E+001	-3.2892570E-002	4.2936963E-006	2.1047125E+000	2.0518410E+000	1.000000000000000E+000	14	1.3050652E-001	3.0325352E-006	1.047005946370458E-005	0.0000000E+000	-1.0004572E+002	3.6828915E-006	2.2942942E-005	2.3236658E-005	8.0880455E+001	1.448849660871741E-007
1.5846854E+000	7.8327075E+003	4.7199789E+004	4.7845285E+004	-8.0577751E+001	8.889399368889281E+001	-3.2892678E-002	-4.6810596E-006	2.1278305E+000	2.0708032E+000	1.000000000000000E+000	14	1.3050435E-001	2.7276326E-006	1.034084403718543E-005	0.0000000E+000	-1.0005373E+002	3.4216339E-006	2.0618723E-005	2.0900701E-005	8.0577751E+001	-1.292154265191442E-007
1.4122382E+000	8.8734121E+003	5.2384191E+004	5.3130414E+004	-8.0385872E+001	9.142316431566724E+001	-3.2896563E-002	7.2058692E-006	2.1513541E+000	2.0913465E+000	1.000000000000000E+000	14	1.3050367E-001	2.4562894E-006	1.042559298244275E-005	0.0000000E+000	-1.0007779E+002	3.1434324E-006	1.8557259E-005	1.8821611E-005	8.0385872E+001	8.474894525731273E-008
1.2596743E+000	9.9953311E+003	5.8012574E+004	5.8867355E+004	-8.0224152E+001	9.425195437006187E+001	-3.2893755E-002	-1.8050646E-006	2.1779089E+000	2.1151197E+000	1.000000000000000E+000	14	1.3050222E-001	2.2168861E-006	1.040200711180969E-005	0.0000000E+000	-1.0010184E+002	2.8843508E-006	1.6740680E-005	1.6987344E-005	8.0224152E+001	-2.358587063305534E-008
1.1224856E+000	1.1278340E+004	6.4216504E+004	6.5199391E+004	-8.0038742E+001	9.741998502719798E+001	-3.2893598E-002	4.6726427E-006	2.2079675E+000	2.1418986E+000	1.000000000000000E+000	14	1.3050023E-001	2.0015559E-006	1.037313569451146E-005	0.0000000E+000	-1.0009383E+002	2.6531263E-006	1.5106351E-005	1.5337566E-005	8.0038742E+001	-2.887141729822995E-008
1.0000638E+000	1.2782527E+004	7.1073039E+004	7.2213367E+004	-7.9804321E+001	1.009692311957770E+002	-3.2890931E-002	3.3399027E-007	2.2391725E+000	2.1690128E+000	1.000000000000000E+000	14	1.3050023E-001	1.8071478E-006	1.045467280433285E-005	0.0000000E+000	-1.0006175E+002	2.4512153E-006	1.3629180E-005	1.3847852E-005	7.9804321E+001	8.153710982138460E-008