EC-Lab ASCII FILE
Nb header lines : 75                          

Potentio Electrochemical Impedance Spectroscopy

Run on channel : 3 (SN 20921)
User : 
CE vs. WE compliance from -10 V to 10 V
Electrode connection : standard
Ewe ctrl range : min = -10.00 V, max = 10.00 V
Safety Limits :
	Do not start on E overload
Acquisition started on : 01/24/2020 09:45:13
Technique started on : 01/24/2020 09:45:14
Saved on :
	File : DE_40_3_60.mpr
	Directory : P:\Chemistry\Data\VMP3\Kyler\DOE\DE_40\2ND 60C\
	Host : 10.0.4.99
Device : VMP3 (SN 0183)
Address : USB
EC-Lab for windows v11.33 (software)
Internet server v11.32 (firmware)
Command interpretor v11.33 (firmware)
Electrode material : 
Initial state : 
Electrolyte : 
Comments : 
Electrode surface area : 0.001 cm²
Characteristic mass : 0.001 g
Equivalent Weight : 0.000 g/eq.
Density : 0.000 g/cm3
Record Analogic IN 1
Cycle Definition : Charge/Discharge alternance
External device configuration :
   device type : Thermostat
   device name : Other
   Analog OUT : 
      mode : E/V
      unit : T/°C
      max : 400.000 at 5.000 V
      min : -100.000 at 0.000 V
      current : 0.000
   Analog IN 1 : 
      unit : T/°C
      max : 400.000 at 5.000 V
      min : -100.000 at 0.000 V
Mode                Single sine         
E (V)               0.0000              
vs.                 Eoc                 
tE (h:m:s)          0:00:0.0000         
record              0                   
dI                  1.000               
unit dI             mA                  
dt (s)              0.000               
fi                  1.000               
unit fi             MHz                 
ff                  1.000               
unit ff             Hz                  
Nd                  20                  
Points              per decade          
spacing             Logarithmic         
Va (mV)             128.0               
pw                  0.50                
Na                  3                   
corr                0                   
E range min (V)     -10.000             
E range max (V)     10.000              
I Range             Auto                
Bandwidth           5                   
nc cycles           0                   
goto Ns'            0                   
nr cycles           0                   
inc. cycle          1                   

freq/Hz	Re(Z)/Ohm	-Im(Z)/Ohm	|Z|/Ohm	Phase(Z)/deg	time/s	<Ewe>/V	<I>/mA	Cs/µF	Cp/µF	cycle number	I Range	|Ewe|/V	|I|/A	(Q-Qo)/mA.h	Analog OUT/V	Analog IN 1/V	Re(Y)/Ohm-1	Im(Y)/Ohm-1	|Y|/Ohm-1	Phase(Y)/deg	dq/mA.h	
1.0000186E+006	4.4602995E+000	-1.6544036E+000	4.7572389E+000	2.0350704E+001	1.846600087737897E+000	-6.1001517E-003	2.5527984E-001	-9.6199013E-002	-1.1634390E-002	1.000000000000000E+000	9	3.0591069E-005	6.4304249E-006	2.699962438051201E-005	0.0000000E+000	-1.0007990E+002	1.9708525E-001	-7.3102385E-002	2.1020597E-001	-2.0350704E+001	2.699962438051201E-005
8.9124669E+005	8.1200363E+001	2.6586645E+001	8.5442078E+001	-1.8129496E+001	3.021489103470230E+000	-5.7352171E-003	2.4831842E-003	6.7167422E-003	6.5034250E-004	1.000000000000000E+000	11	4.9517804E-004	5.7954821E-006	5.226468273043429E-005	0.0000000E+000	-1.0006387E+002	1.1122806E-002	3.6418322E-003	1.1703835E-002	1.8129496E+001	2.526505834992228E-005
7.9433269E+005	8.4775711E+001	2.5596819E+001	8.8555733E+001	-1.6800943E+001	3.617471185134491E+000	-5.3828070E-003	2.5025688E-003	7.8276554E-003	6.5398886E-004	1.000000000000000E+000	11	1.4434959E-003	1.6300422E-005	5.274120803536749E-005	0.0000000E+000	-1.0007188E+002	1.0810307E-002	3.2640186E-003	1.1292323E-002	1.6800943E+001	4.765253049331990E-007
7.0794981E+005	8.7778908E+001	2.4357256E+001	9.1095627E+001	-1.5508491E+001	4.212477773398859E+000	-5.0971028E-003	2.4194408E-003	9.2297364E-003	6.5985869E-004	1.000000000000000E+000	11	2.9774252E-003	3.2684613E-005	5.326492908821496E-005	0.0000000E+000	-1.0006387E+002	1.0577794E-002	2.9351702E-003	1.0977475E-002	1.5508491E+001	5.237210528474771E-007
6.3095681E+005	9.0483269E+001	2.2939228E+001	9.3345757E+001	-1.4225850E+001	4.808487481699558E+000	-4.8365975E-003	2.4736801E-003	1.0996177E-002	6.6406431E-004	1.000000000000000E+000	11	5.1913694E-003	5.5614411E-005	5.384836347320218E-005	0.0000000E+000	-1.0007188E+002	1.0384345E-002	2.6326291E-003	1.0712860E-002	1.4225850E+001	5.834343849872131E-007
5.6234225E+005	9.3141380E+001	2.1566946E+001	9.5605698E+001	-1.3037118E+001	5.405492843390675E+000	-4.6243090E-003	2.5016388E-003	1.3122929E-002	6.6779094E-004	1.000000000000000E+000	11	8.1477687E-003	8.5222629E-005	5.434457792035897E-005	0.0000000E+000	-1.0008792E+002	1.0190022E-002	2.3595062E-003	1.0459628E-002	1.3037118E+001	4.962144471567926E-007
5.0120619E+005	9.5361923E+001	2.0218525E+001	9.7481720E+001	-1.1970519E+001	6.002487938414561E+000	-4.4624368E-003	2.4738691E-003	1.5705591E-002	6.7562674E-004	1.000000000000000E+000	11	1.1853776E-002	1.2159999E-004	5.487595406110440E-005	0.0000000E+000	-1.0007188E+002	1.0035261E-002	2.1276642E-003	1.0258334E-002	1.1970519E+001	5.313761407454279E-007
4.4668572E+005	9.7272202E+001	1.8902508E+001	9.9091805E+001	-1.0996996E+001	6.597492420027265E+000	-4.3485207E-003	2.4630595E-003	1.8849447E-002	6.8590190E-004	1.000000000000000E+000	11	1.6357426E-002	1.6507345E-004	5.504310962159737E-005	0.0000000E+000	-1.0007990E+002	9.9063413E-003	1.9250587E-003	1.0091652E-002	1.0996996E+001	1.671555604929745E-007
3.9810347E+005	9.8922890E+001	1.7611605E+001	1.0047839E+002	-1.0094810E+001	7.193494021630613E+000	-4.3165185E-003	2.4994053E-003	2.2699969E-002	6.9739338E-004	1.000000000000000E+000	11	2.1635309E-002	2.1532302E-004	5.594505674803501E-005	0.0000000E+000	-1.0008792E+002	9.7983172E-003	1.7444304E-003	9.9523896E-003	1.0094810E+001	9.019471264376389E-007
3.5480997E+005	1.0025707E+002	1.6264807E+001	1.0156783E+002	-9.2148705E+000	7.789490983268479E+000	-4.2999866E-003	2.5432098E-003	2.7578803E-002	7.0723030E-004	1.000000000000000E+000	11	2.7746657E-002	2.7318351E-004	5.579190109925811E-005	0.0000000E+000	-1.0007188E+002	9.7185764E-003	1.5766545E-003	9.8456368E-003	9.2148705E+000	-1.531556487768975E-007
3.1622997E+005	1.0134195E+002	1.4992628E+001	1.0244496E+002	-8.4153538E+000	8.385478798270924E+000	-4.3178229E-003	2.3337123E-003	3.3569071E-002	7.1897480E-004	1.000000000000000E+000	11	3.4680177E-002	3.3852496E-004	5.691893125287627E-005	0.0000000E+000	-1.0006387E+002	9.6562402E-003	1.4285536E-003	9.7613391E-003	8.4153538E+000	1.127030153618153E-006
2.8183453E+005	1.0223560E+002	1.3791509E+001	1.0316164E+002	-7.6827803E+000	8.981475946580758E+000	-4.3107960E-003	2.5042584E-003	4.0946253E-002	7.3181489E-004	1.000000000000000E+000	11	4.2536285E-002	4.1232657E-004	5.794888952974361E-005	0.0000000E+000	-1.0005585E+002	9.6065113E-003	1.2959115E-003	9.6935257E-003	7.6827803E+000	1.029958276867342E-006
2.5118764E+005	1.0292458E+002	1.2647977E+001	1.0369880E+002	-7.0057182E+000	9.576480348157929E+000	-4.3118400E-003	2.4735045E-003	5.0095741E-002	7.4523885E-004	1.000000000000000E+000	11	5.1307574E-002	4.9477501E-004	5.808993825658278E-005	0.0000000E+000	-1.0009594E+002	9.5713167E-003	1.1761795E-003	9.6433135E-003	7.0057182E+000	1.410487268391707E-007
2.2387173E+005	1.0349216E+002	1.1623689E+001	1.0414288E+002	-6.4083009E+000	1.017148560311762E+001	-4.3150266E-003	2.2168518E-003	6.1161321E-002	7.6191354E-004	1.000000000000000E+000	11	6.1073761E-002	5.8644207E-004	5.788033505807632E-005	0.0000000E+000	-1.0009594E+002	9.5421961E-003	1.0717286E-003	9.6021928E-003	6.4083009E+000	-2.096031985064542E-007
1.9954350E+005	1.0392989E+002	1.0709322E+001	1.0448020E+002	-5.8832054E+000	1.076748912475887E+001	-4.2684679E-003	2.6146085E-003	7.4476726E-002	7.8248593E-004	1.000000000000000E+000	11	7.1724296E-002	6.8648695E-004	5.807094834011716E-005	0.0000000E+000	-1.0007990E+002	9.5207784E-003	9.8105625E-004	9.5711909E-003	5.8832054E+000	1.906132820408363E-007
1.7783180E+005	1.0426774E+002	9.8740664E+000	1.0473423E+002	-5.4097290E+000	1.136448176644626E+001	-4.2884853E-003	2.2970061E-003	9.0638913E-002	8.0561859E-004	1.000000000000000E+000	11	8.3226606E-002	7.9464569E-004	5.944215393347784E-005	0.0000000E+000	-1.0006387E+002	9.5054498E-003	9.0015808E-004	9.5479768E-003	5.4097290E+000	1.371205593360679E-006
1.5848613E+005	1.0453970E+002	9.1292200E+000	1.0493755E+002	-4.9908524E+000	1.196048718140810E+001	-4.2449650E-003	2.6876766E-003	1.1000063E-001	8.3253154E-004	1.000000000000000E+000	11	9.5578276E-002	9.1081095E-004	5.871818404200450E-005	0.0000000E+000	-1.0007990E+002	9.4933473E-003	8.2903297E-004	9.5294770E-003	4.9908524E+000	-7.239698914733410E-007
1.4125594E+005	1.0474824E+002	8.4937325E+000	1.0509204E+002	-4.6358070E+000	1.255648944972199E+001	-4.2584776E-003	2.5713718E-003	1.3265231E-001	8.6650753E-004	1.000000000000000E+000	11	1.0872743E-001	1.0345924E-003	5.909960308733126E-005	0.0000000E+000	-1.0008792E+002	9.4843386E-003	7.6905772E-004	9.5154680E-003	4.6358070E+000	3.814190453267605E-007
1.2590930E+005	1.0492696E+002	7.9491134E+000	1.0522764E+002	-4.3323689E+000	1.301647296486772E+001	-4.2414977E-003	2.5324177E-003	1.5901704E-001	9.0744725E-004	1.000000000000000E+000	11	1.2284272E-001	1.1673998E-003	5.871084564655232E-005	0.0000000E+000	-1.0007990E+002	9.4760526E-003	7.1789190E-004	9.5032072E-003	4.3323689E+000	-3.887574407789385E-007
1.1220494E+005	1.0507076E+002	7.4958906E+000	1.0533780E+002	-4.0806451E+000	1.347547917332849E+001	-4.1847434E-003	3.0703433E-003	1.8922779E-001	9.5821486E-004	1.000000000000000E+000	11	1.3799895E-001	1.3100611E-003	5.975674078300532E-005	0.0000000E+000	-1.0009594E+002	9.4692018E-003	6.7554566E-004	9.4932681E-003	4.0806451E+000	1.045895136452999E-006
1.0000371E+005	1.0517600E+002	7.1260958E+000	1.0541714E+002	-3.8760948E+000	1.407048789496184E+001	-4.1557993E-003	2.6580459E-003	2.2333272E-001	1.0205475E-003	1.000000000000000E+000	11	1.3029176E-001	1.2359638E-003	5.898843463362856E-005	0.0000000E+000	-1.0006387E+002	9.4644250E-003	6.4125273E-004	9.4861239E-003	3.8760948E+000	-7.683061493767612E-007
8.9129305E+004	1.0525137E+002	6.8363695E+000	1.0547316E+002	-3.7163000E+000	1.466548946985858E+001	-4.1356324E-003	2.4671825E-003	2.6120055E-001	1.0973400E-003	1.000000000000000E+000	11	1.2978694E-001	1.2305210E-003	6.072920533999220E-005	0.0000000E+000	-1.0009594E+002	9.4611486E-003	6.1452796E-004	9.4810855E-003	3.7163000E+000	1.740770706363645E-006
7.9433273E+004	1.0530389E+002	6.6220574E+000	1.0551189E+002	-3.5983191E+000	1.526148725816165E+001	-4.0952810E-003	2.5374510E-003	3.0256921E-001	1.1918121E-003	1.000000000000000E+000	11	1.2960045E-001	1.2283018E-003	5.846733812545143E-005	0.0000000E+000	-1.0004784E+002	9.4589200E-003	5.9482618E-004	9.4776042E-003	3.5983191E+000	-2.261867214540770E-006
7.0794977E+004	1.0534386E+002	6.4927478E+000	1.0554375E+002	-3.5268981E+000	1.585849059323664E+001	-4.0564579E-003	2.6476043E-003	3.4624949E-001	1.3103314E-003	1.000000000000000E+000	11	1.2951392E-001	1.2271112E-003	5.803710489340826E-005	0.0000000E+000	-1.0006387E+002	9.4567984E-003	5.8285892E-004	9.4747432E-003	3.5268981E+000	-4.302332320431699E-007
6.3093828E+004	1.0537576E+002	6.4350562E+000	1.0557207E+002	-3.4945822E+000	1.645447118152515E+001	-4.0577254E-003	2.5449062E-003	3.9199534E-001	1.4564231E-003	1.000000000000000E+000	11	1.2944347E-001	1.2261147E-003	5.873130629317368E-005	0.0000000E+000	-1.0009594E+002	9.4545893E-003	5.7737011E-004	9.4722025E-003	3.4945822E+000	6.942013997654126E-007
5.6237012E+004	1.0539346E+002	6.4560685E+000	1.0559101E+002	-3.5053773E+000	1.705048947650357E+001	-4.0484625E-003	2.4209577E-003	4.3835881E-001	1.6387479E-003	1.000000000000000E+000	11	1.2929906E-001	1.2245271E-003	5.877495334913813E-005	0.0000000E+000	-1.0011197E+002	9.4527844E-003	5.7904754E-004	9.4705028E-003	3.5053773E+000	4.364705596445883E-008
5.0122477E+004	1.0540340E+002	6.5532875E+000	1.0560692E+002	-3.5576940E+000	1.764648329149350E+001	-4.0284260E-003	2.4901074E-003	4.8453858E-001	1.8657871E-003	1.000000000000000E+000	11	1.2934841E-001	1.2248100E-003	6.009524162889971E-005	0.0000000E+000	-1.0008792E+002	9.4508287E-003	5.8759010E-004	9.4690770E-003	3.5576940E+000	1.320288279761574E-006
4.4666715E+004	1.0542389E+002	6.7322040E+000	1.0563863E+002	-3.6538570E+000	1.810547747326200E+001	-4.0259282E-003	2.5055876E-003	5.2927190E-001	2.1495516E-003	1.000000000000000E+000	11	1.4021805E-001	1.3273369E-003	6.141887498730123E-005	0.0000000E+000	-1.0003982E+002	9.4469925E-003	6.0327008E-004	9.4662346E-003	3.6538570E+000	1.323633358401519E-006
3.9814063E+004	1.0542966E+002	6.9824891E+000	1.0566062E+002	-3.7891026E+000	1.870148443491780E+001	-4.0067686E-003	2.4450028E-003	5.7249725E-001	2.5001587E-003	1.000000000000000E+000	11	1.3027391E-001	1.2329466E-003	6.261733004549064E-005	0.0000000E+000	-1.0014404E+002	9.4435755E-003	6.2543759E-004	9.4642639E-003	3.7891026E+000	1.198455058189411E-006
3.5480996E+004	1.0544959E+002	7.3312778E+000	1.0570413E+002	-3.9770327E+000	1.916149653677712E+001	-4.0004873E-003	2.5369006E-003	6.1184955E-001	2.9432022E-003	1.000000000000000E+000	11	1.3956907E-001	1.3203748E-003	6.285094475563811E-005	0.0000000E+000	-1.0010395E+002	9.4375871E-003	6.5613887E-004	9.4603682E-003	3.9770327E+000	2.336147101474718E-007
3.1621143E+004	1.0545380E+002	7.7630577E+000	1.0573915E+002	-4.2102757E+000	1.975747792507173E+001	-3.9865836E-003	2.4084705E-003	6.4835036E-001	3.4946506E-003	1.000000000000000E+000	11	1.3002905E-001	1.2297153E-003	6.462022257253517E-005	0.0000000E+000	-1.0011197E+002	9.4317133E-003	6.9432240E-004	9.4572352E-003	4.2102757E+000	1.769277816897054E-006
2.8188096E+004	1.0548185E+002	8.2849379E+000	1.0580672E+002	-4.4910040E+000	2.021647842685343E+001	-3.9817747E-003	2.4627175E-003	6.8149883E-001	4.1784686E-003	1.000000000000000E+000	11	1.3757563E-001	1.3002541E-003	6.432940458036845E-005	0.0000000E+000	-1.0009594E+002	9.4221774E-003	7.4005290E-004	9.4511956E-003	4.4910040E+000	-2.908179921667171E-007
2.5116910E+004	1.0549177E+002	8.9110355E+000	1.0586746E+002	-4.8283916E+000	2.081248280181899E+001	-3.9692316E-003	2.4431380E-003	7.1109188E-001	5.0379876E-003	1.000000000000000E+000	11	1.2968987E-001	1.2250211E-003	6.491918277419184E-005	0.0000000E+000	-1.0011197E+002	9.4122523E-003	7.9506601E-004	9.4457725E-003	4.8283916E+000	5.897781938233904E-007
2.2389027E+004	1.0552847E+002	9.6425838E+000	1.0596810E+002	-5.2208600E+000	2.127147461028653E+001	-3.9756615E-003	2.4392286E-003	7.3721045E-001	6.1041899E-003	1.000000000000000E+000	11	1.3548906E-001	1.2785834E-003	6.575484078389815E-005	0.0000000E+000	-1.0011197E+002	9.3976520E-003	8.5870322E-004	9.4368020E-003	5.2208600E+000	8.356580097063077E-007
1.9948783E+004	1.0556892E+002	1.0490128E+001	1.0608884E+002	-5.6747141E+000	2.173149415219086E+001	-3.9647389E-003	2.5177035E-003	7.6054162E-001	7.4360985E-003	1.000000000000000E+000	11	1.4073998E-001	1.3266238E-003	6.705963376235619E-005	0.0000000E+000	-1.0009594E+002	9.3798675E-003	9.3205465E-004	9.4260620E-003	5.6747141E+000	1.304792978458044E-006
1.7786895E+004	1.0560880E+002	1.1464481E+001	1.0622924E+002	-6.1955466E+000	2.232749644716387E+001	-3.9519542E-003	2.5687632E-003	7.8048688E-001	9.0904683E-003	1.000000000000000E+000	11	1.2978469E-001	1.2217417E-003	6.520795655291981E-005	0.0000000E+000	-1.0007990E+002	9.3586221E-003	1.0159357E-003	9.4136037E-003	6.1955466E+000	-1.851677209436376E-006
1.5847686E+004	1.0567233E+002	1.2576437E+001	1.0641808E+002	-6.7870483E+000	2.278648028228781E+001	-3.9578248E-003	2.4966334E-003	7.9853994E-001	1.1152727E-002	1.000000000000000E+000	11	1.3338289E-001	1.2533856E-003	6.674200636516495E-005	0.0000000E+000	-1.0006387E+002	9.3310485E-003	1.1105209E-003	9.3968995E-003	6.7870483E+000	1.534049812245138E-006
1.4121879E+004	1.0574834E+002	1.3821283E+001	1.0664773E+002	-7.4463363E+000	2.324649470412987E+001	-3.9608623E-003	2.4834033E-003	8.1541610E-001	1.3695340E-002	1.000000000000000E+000	11	1.3644862E-001	1.2794330E-003	6.619551212995793E-005	0.0000000E+000	-1.0007188E+002	9.2975879E-003	1.2151926E-003	9.3766646E-003	7.4463363E+000	-5.464942352070184E-007
1.2590932E+004	1.0585602E+002	1.5263150E+001	1.0695074E+002	-8.2048063E+000	2.370647765931790E+001	-3.9601913E-003	2.4841514E-003	8.2816732E-001	1.6867040E-002	1.000000000000000E+000	11	1.3904062E-001	1.3000435E-003	6.685776167891365E-005	0.0000000E+000	-1.0010395E+002	9.2543941E-003	1.3343710E-003	9.3500996E-003	8.2048063E+000	6.622495489557199E-007
1.1217711E+004	1.0595899E+002	1.6876905E+001	1.0729463E+002	-9.0499210E+000	2.430247814094764E+001	-3.9516184E-003	2.4034390E-003	8.4066522E-001	2.0799492E-002	1.000000000000000E+000	11	1.2926996E-001	1.2048129E-003	7.027840043635459E-005	0.0000000E+000	-1.0008792E+002	9.2041101E-003	1.4660096E-003	9.3201306E-003	9.0499210E+000	3.420638757440934E-006
1.0002229E+004	1.0610857E+002	1.8677382E+001	1.0773984E+002	-9.9830198E+000	2.476248509614379E+001	-3.9521591E-003	2.4194687E-003	8.5193664E-001	2.5602752E-002	1.000000000000000E+000	11	1.3087885E-001	1.2147675E-003	7.165808641373679E-005	0.0000000E+000	-1.0007188E+002	9.1410866E-003	1.6090270E-003	9.2816176E-003	9.9830198E+000	1.379685977382199E-006
8.9149297E+003	1.0628625E+002	2.0707525E+001	1.0828467E+002	-1.1024708E+001	2.524490543905995E+001	-3.9338376E-003	2.5588863E-003	8.6213243E-001	3.1528004E-002	1.000000000000000E+000	11	1.3220146E-001	1.2208696E-003	7.168196379670998E-005	0.0000000E+000	-1.0005585E+002	9.0644853E-003	1.7660144E-003	9.2349174E-003	1.1024708E+001	2.387738297319618E-008
7.9439976E+003	1.0649317E+002	2.2977095E+001	1.0894376E+002	-1.2175561E+001	2.577099314404768E+001	-3.9209398E-003	2.5881478E-003	8.7193859E-001	3.8785685E-002	1.000000000000000E+000	11	1.3325064E-001	1.2231141E-003	7.228296406585569E-005	0.0000000E+000	-1.0005585E+002	8.9725740E-003	1.9359335E-003	9.1790482E-003	1.2175561E+001	6.010002691457115E-007
7.0822334E+003	1.0673084E+002	2.5504971E+001	1.0973594E+002	-1.3439666E+001	2.634785877144895E+001	-3.9200266E-003	2.6384727E-003	8.8109976E-001	4.7596712E-002	1.000000000000000E+000	11	1.3407695E-001	1.2218144E-003	7.365977075695062E-005	0.0000000E+000	-1.0009594E+002	8.8632330E-003	2.1180052E-003	9.1127846E-003	1.3439666E+001	1.376806691094927E-006
6.3077344E+003	1.0701537E+002	2.8352274E+001	1.1070746E+002	-1.4838825E+001	2.698255392155261E+001	-3.9022644E-003	2.5244041E-003	8.8993609E-001	5.8368813E-002	1.000000000000000E+000	11	1.3472638E-001	1.2169584E-003	7.295831245367986E-005	0.0000000E+000	-1.0004784E+002	8.7315710E-003	2.3133114E-003	9.0328148E-003	1.4838825E+001	-7.014583032707600E-007
5.6210552E+003	1.0734436E+002	3.1505260E+001	1.1187222E+002	-1.6356812E+001	2.768327158151078E+001	-3.8973999E-003	2.4908534E-003	8.9870918E-001	7.1275599E-002	1.000000000000000E+000	11	1.3521238E-001	1.2086324E-003	7.358529344312046E-005	0.0000000E+000	-1.0008792E+002	8.5769864E-003	2.5173209E-003	8.9387698E-003	1.6356812E+001	6.269809894406033E-007
5.0116035E+003	1.0771672E+002	3.5009453E+001	1.1326321E+002	-1.8004892E+001	2.844367959102237E+001	-3.9082472E-003	2.3877798E-003	9.0710610E-001	8.6666457E-002	1.000000000000000E+000	11	1.3555850E-001	1.1968450E-003	7.318169409332565E-005	0.0000000E+000	-1.0000775E+002	8.3966386E-003	2.7290259E-003	8.8289930E-003	1.8004892E+001	-4.035993497948133E-007
4.4664292E+003	1.0818180E+002	3.8902756E+001	1.1496402E+002	-1.9778858E+001	2.920370602712501E+001	-3.9086756E-003	2.5141523E-003	9.1596591E-001	1.0488568E-001	1.000000000000000E+000	11	1.3581574E-001	1.1813761E-003	7.338902345926787E-005	0.0000000E+000	-1.0008792E+002	8.1852200E-003	2.9434490E-003	8.6983740E-003	1.9778858E+001	2.073293659422143E-007
3.9812742E+003	1.0871283E+002	4.3226784E+001	1.1699160E+002	-2.1683935E+001	2.996369811655313E+001	-3.8997855E-003	2.5693225E-003	9.2479426E-001	1.2625296E-001	1.000000000000000E+000	11	1.3597217E-001	1.1622388E-003	7.304049988159992E-005	0.0000000E+000	-1.0007188E+002	7.9427594E-003	3.1582285E-003	8.5476218E-003	2.1683935E+001	-3.485235776679469E-007
3.5465955E+003	1.0933732E+002	4.8048935E+001	1.1942927E+002	-2.3723373E+001	3.072292719260440E+001	-3.8994125E-003	2.4409008E-003	9.3395239E-001	1.5117177E-001	1.000000000000000E+000	11	1.3604929E-001	1.1391620E-003	7.431606024395418E-005	0.0000000E+000	-1.0009594E+002	7.6656132E-003	3.3686992E-003	8.3731571E-003	2.3723373E+001	1.275560362354260E-006
3.1610112E+003	1.1006284E+002	5.3374290E+001	1.2232188E+002	-2.5870777E+001	3.148269472203538E+001	-3.8910068E-003	2.6306424E-003	9.4332635E-001	1.7960478E-001	1.000000000000000E+000	11	1.3606669E-001	1.1123659E-003	7.547374607787262E-005	0.0000000E+000	-1.0009594E+002	7.3558423E-003	3.5671699E-003	8.1751524E-003	2.5870777E+001	1.157685833918441E-006
2.8172952E+003	1.1090526E+002	5.9280846E+001	1.2575450E+002	-2.8125301E+001	3.224296555813635E+001	-3.9126459E-003	2.4394090E-003	9.5295721E-001	2.1176544E-001	1.000000000000000E+000	11	1.3603479E-001	1.0817489E-003	7.570965452510710E-005	0.0000000E+000	-1.0006387E+002	7.0130196E-003	3.7485845E-003	7.9520019E-003	2.8125301E+001	2.359084472344845E-007
2.5108032E+003	1.1187541E+002	6.5805023E+001	1.2979372E+002	-3.0464006E+001	3.300269714090246E+001	-3.8856764E-003	2.6589732E-003	9.6327078E-001	2.4760486E-001	1.000000000000000E+000	11	1.3595791E-001	1.0474923E-003	7.532300684831353E-005	0.0000000E+000	-1.0007990E+002	6.6409055E-003	3.9061750E-003	7.7045332E-003	3.0464006E+001	-3.866476767935779E-007
2.2378516E+003	1.1296703E+002	7.3034172E+001	1.3451967E+002	-3.2883018E+001	3.376292459032265E+001	-3.9090114E-003	2.4712803E-003	9.7378427E-001	2.8704065E-001	1.000000000000000E+000	11	1.3584489E-001	1.0098515E-003	7.537995738895430E-005	0.0000000E+000	-1.0006387E+002	6.2428107E-003	4.0360312E-003	7.4338573E-003	3.2883018E+001	5.695054064077385E-008
1.9956389E+003	1.1420572E+002	8.0974869E+001	1.3999956E+002	-3.5337646E+001	3.452268774643017E+001	-3.9224681E-003	2.3374555E-003	9.8489040E-001	3.2948458E-001	1.000000000000000E+000	11	1.3571525E-001	9.6939766E-004	7.604970212927219E-005	0.0000000E+000	-1.0003180E+002	5.8268593E-003	4.1313968E-003	7.1428795E-003	3.5337646E+001	6.697447403178938E-007
1.7782927E+003	1.1562348E+002	8.9817581E+001	1.4641034E+002	-3.7840450E+001	3.528294863586780E+001	-3.9108377E-003	2.4744489E-003	9.9645007E-001	3.7500301E-001	1.000000000000000E+000	11	1.3556494E-001	9.2592463E-004	7.685279924410093E-005	0.0000000E+000	-1.0004784E+002	5.3938958E-003	4.1900370E-003	6.8301186E-003	3.7840450E+001	8.030971148287374E-007
1.5855076E+003	1.1720386E+002	9.9544571E+001	1.5377213E+002	-4.0342190E+001	3.604270432529302E+001	-3.9152741E-003	2.3665295E-003	1.0084032E+000	4.2258507E-001	1.000000000000000E+000	11	1.3541286E-001	8.8060735E-004	7.665473673968396E-005	0.0000000E+000	-1.0006387E+002	4.9566324E-003	4.2098085E-003	6.5031294E-003	4.0342190E+001	-1.980625044169666E-007
1.4118373E+003	1.1897746E+002	1.1041328E+002	1.6231676E+002	-4.2861885E+001	3.680420060144388E+001	-3.9083776E-003	2.4349331E-003	1.0209727E+000	4.7242200E-001	1.000000000000000E+000	11	1.3525529E-001	8.3327992E-004	7.749002352096148E-005	0.0000000E+000	-1.0007188E+002	4.5158342E-003	4.1907774E-003	6.1607934E-003	4.2861885E+001	8.352867812775190E-007
1.2587914E+003	1.2092828E+002	1.2229559E+002	1.7198796E+002	-4.5322090E+001	3.756394189086859E+001	-3.9176964E-003	2.3568361E-003	1.0338453E+000	5.2273434E-001	1.000000000000000E+000	11	1.3509962E-001	7.8551791E-004	7.735650547516910E-005	0.0000000E+000	-1.0008792E+002	4.0881964E-003	4.1344208E-003	5.8143605E-003	4.5322090E+001	-1.335180457923872E-007
1.1217948E+003	1.2309403E+002	1.3548900E+002	1.8305576E+002	-4.7744328E+001	3.832241694020922E+001	-3.9070356E-003	2.4106996E-003	1.0471350E+000	5.7364595E-001	1.000000000000000E+000	11	1.3495341E-001	7.3722570E-004	7.839107816426137E-005	0.0000000E+000	-1.0006387E+002	3.6734168E-003	4.0433123E-003	5.4628165E-003	4.7744328E+001	1.034572689092279E-006
1.0003201E+003	1.2547152E+002	1.5000310E+002	1.9556081E+002	-5.0088882E+001	3.908168625630060E+001	-3.9016679E-003	2.4882362E-003	1.0606716E+000	6.2404764E-001	1.000000000000000E+000	11	1.3481073E-001	6.8935455E-004	7.908616668346844E-005	0.0000000E+000	-1.0007990E+002	3.2808133E-003	3.9222618E-003	5.1134992E-003	5.0088882E+001	6.950885192070664E-007
8.9142657E+002	1.2808461E+002	1.6613036E+002	2.0977361E+002	-5.2368187E+001	3.984040970561909E+001	-3.9055634E-003	2.4222517E-003	1.0746958E+000	6.7403406E-001	1.000000000000000E+000	11	1.3468532E-001	6.4205087E-004	7.965466178598621E-005	0.0000000E+000	-1.0005585E+002	2.9106855E-003	3.7752641E-003	4.7670440E-003	5.2368187E+001	5.684951025177658E-007
7.9423773E+002	1.3098135E+002	1.8403802E+002	2.2588959E+002	-5.4560234E+001	4.059992467507254E+001	-3.9121239E-003	2.3818030E-003	1.0888350E+000	7.2274446E-001	1.000000000000000E+000	11	1.3457426E-001	5.9575238E-004	8.030436447370165E-005	0.0000000E+000	-1.0009594E+002	2.5669478E-003	3.6067425E-003	4.4269417E-003	5.4560234E+001	6.497026877154422E-007
7.0750946E+002	1.3413747E+002	2.0389099E+002	2.4405818E+002	-5.6659554E+001	4.136143900451134E+001	-3.9048924E-003	2.4619491E-003	1.1032903E+000	7.7001500E-001	1.000000000000000E+000	11	1.3446981E-001	5.5097439E-004	8.057772335461575E-005	0.0000000E+000	-1.0005585E+002	2.2519741E-003	3.4230344E-003	4.0973835E-003	5.6659554E+001	2.733588809140973E-007
6.3100964E+002	1.3752216E+002	2.2567764E+002	2.6427777E+002	-5.8642944E+001	4.211943256054656E+001	-3.9103534E-003	2.3793783E-003	1.1176237E+000	8.1498837E-001	1.000000000000000E+000	11	1.3437723E-001	5.0846965E-004	8.075336357888934E-005	0.0000000E+000	-1.0003982E+002	1.9690257E-003	3.2312255E-003	3.7838975E-003	5.8642944E+001	1.756402242735974E-007
5.6233929E+002	1.4123953E+002	2.4997121E+002	2.8711359E+002	-6.0532543E+001	4.287593790315441E+001	-3.9050786E-003	2.3747189E-003	1.1322223E+000	8.5823101E-001	1.000000000000000E+000	11	1.3429403E-001	4.6773834E-004	8.142709604799853E-005	0.0000000E+000	-1.0003180E+002	1.7133607E-003	3.0323721E-003	3.4829420E-003	6.0532543E+001	6.737324691091816E-007
5.0144415E+002	1.4523233E+002	2.7677713E+002	3.1256680E+002	-6.2312805E+001	4.388317768429988E+001	-3.9264192E-003	2.6720311E-004	1.1467464E+000	8.9917052E-001	1.000000000000000E+000	12	1.3737114E-001	4.3949368E-004	8.175932679732512E-005	0.0000000E+000	-1.0006387E+002	1.4865436E-003	2.8329864E-003	3.1993161E-003	6.2312805E+001	3.322307493265977E-007
4.4685895E+002	1.4963899E+002	3.0667529E+002	3.4123535E+002	-6.3990425E+001	4.463992537363083E+001	-3.9229528E-003	2.6164661E-004	1.1613708E+000	9.3803799E-001	1.000000000000000E+000	12	1.3677001E-001	4.0080844E-004	8.174430883751847E-005	0.0000000E+000	-1.0009594E+002	1.2850994E-003	2.6337272E-003	2.9305287E-003	6.3990425E+001	-1.501795980664842E-008
3.9808920E+002	1.5441914E+002	3.3995642E+002	3.7338403E+002	-6.5570923E+001	4.540272599653690E+001	-3.9246860E-003	2.3520862E-004	1.1760248E+000	9.7488070E-001	1.000000000000000E+000	12	1.3625814E-001	3.6492760E-004	8.160173324038340E-005	0.0000000E+000	-1.0003982E+002	1.1076172E-003	2.4384384E-003	2.6782078E-003	6.5570923E+001	-1.425755971350725E-007
3.5465955E+002	1.5954915E+002	3.7687543E+002	4.0925665E+002	-6.7054764E+001	4.616293099263567E+001	-3.9236983E-003	2.7590821E-004	1.1907228E+000	1.0097522E+000	1.000000000000000E+000	12	1.3583094E-001	3.3189671E-004	8.177333419865439E-005	0.0000000E+000	-1.0007990E+002	9.5258345E-004	2.2501233E-003	2.4434545E-003	6.7054764E+001	1.716009582709892E-007
3.1631586E+002	1.6516092E+002	4.1755835E+002	4.4903574E+002	-6.8419235E+001	4.691990614857059E+001	-3.9148452E-003	2.4385862E-004	1.2049860E+000	1.0419683E+000	1.000000000000000E+000	12	1.3547778E-001	3.0170823E-004	8.163961123411436E-005	0.0000000E+000	-1.0008792E+002	8.1911602E-004	2.0708819E-003	2.2269941E-003	6.8419235E+001	-1.337229645400343E-007
2.8189429E+002	1.7123943E+002	4.6302847E+002	4.9367834E+002	-6.9704353E+001	4.767538469107240E+001	-3.9288797E-003	2.3776080E-004	1.2193437E+000	1.0726385E+000	1.000000000000000E+000	12	1.3519019E-001	2.7384266E-004	8.192244601930037E-005	0.0000000E+000	-1.0010395E+002	7.0261216E-004	1.8998511E-003	2.0256105E-003	6.9704353E+001	2.828347851860130E-007
2.5104436E+002	1.7787997E+002	5.1392267E+002	5.4383618E+002	-7.0908134E+001	4.843191398039926E+001	-3.9277985E-003	2.4241893E-004	1.2335930E+000	1.1016185E+000	1.000000000000000E+000	12	1.3494875E-001	2.4814229E-004	8.212963265350239E-005	0.0000000E+000	-1.0008792E+002	6.0143799E-004	1.7376470E-003	1.8387890E-003	7.0908134E+001	2.071866342020232E-007
2.2392513E+002	1.8499655E+002	5.6976599E+002	5.9904675E+002	-7.2011978E+001	4.919470084331260E+001	-3.9240709E-003	2.4939192E-004	1.2474432E+000	1.1284763E+000	1.000000000000000E+000	12	1.3475126E-001	2.2494282E-004	8.228673146338042E-005	0.0000000E+000	-1.0006387E+002	5.1551597E-004	1.5877243E-003	1.6693188E-003	7.2011978E+001	1.570988098780233E-007
1.9955299E+002	1.9269356E+002	6.3239453E+002	6.6110034E+002	-7.3053780E+001	4.995620527942083E+001	-3.9319177E-003	2.3947313E-004	1.2611704E+000	1.1540250E+000	1.000000000000000E+000	12	1.3458763E-001	2.0358125E-004	8.211673626658295E-005	0.0000000E+000	-1.0002379E+002	4.4089215E-004	1.4469494E-003	1.5126297E-003	7.3053780E+001	-1.699951967974663E-007
1.7778128E+002	2.0118802E+002	7.0228119E+002	7.3053094E+002	-7.4014160E+001	5.072426734256442E+001	-3.9313585E-003	2.4034904E-004	1.2747443E+000	1.1780614E+000	1.000000000000000E+000	12	1.3445877E-001	1.8405622E-004	8.198342512863342E-005	0.0000000E+000	-1.0007990E+002	3.7698576E-004	1.3159330E-003	1.3688673E-003	7.4014160E+001	-1.333111379495317E-007
1.5842838E+002	2.1035483E+002	7.7979913E+002	8.0767310E+002	-7.4903503E+001	5.149073289902299E+001	-3.9256550E-003	2.4734079E-004	1.2882626E+000	1.2008774E+000	1.000000000000000E+000	12	1.3434879E-001	1.6634056E-004	8.216298479871765E-005	0.0000000E+000	-1.0007990E+002	3.2246398E-004	1.1953952E-003	1.2381247E-003	7.4903503E+001	1.795596700842293E-007
1.4131134E+002	2.2035522E+002	8.6551282E+002	8.9312311E+002	-7.5716240E+001	5.224388821478351E+001	-3.9266432E-003	2.5270984E-004	1.3012766E+000	1.2220641E+000	1.000000000000000E+000	12	1.3426389E-001	1.5033077E-004	8.209777931698984E-005	0.0000000E+000	-1.0005585E+002	2.7624899E-004	1.0850528E-003	1.1196665E-003	7.5716240E+001	-6.520548172780428E-008
1.2584569E+002	2.3122627E+002	9.6230322E+002	9.8969342E+002	-7.6488869E+001	5.299940494398470E+001	-3.9288052E-003	2.3550123E-004	1.3142254E+000	1.2424885E+000	1.000000000000000E+000	12	1.3418764E-001	1.3558505E-004	8.223856469888708E-005	0.0000000E+000	-1.0006387E+002	2.3606731E-004	9.8245020E-004	1.0104139E-003	7.6488869E+001	1.407853818972347E-007
1.1218996E+002	2.4318040E+002	1.0691539E+003	1.0964611E+003	-7.7186005E+001	5.374485319273663E+001	-3.9295321E-003	2.2196400E-004	1.3268626E+000	1.2615950E+000	1.000000000000000E+000	12	1.3412990E-001	1.2232983E-004	8.236510052363055E-005	0.0000000E+000	-1.0006387E+002	2.0227503E-004	8.8931131E-004	9.1202511E-004	7.7186005E+001	1.265358247434670E-007
1.0003201E+002	2.5620132E+002	1.1880969E+003	1.2154067E+003	-7.7831070E+001	5.450467602885328E+001	-3.9290474E-003	2.4871834E-004	1.3391502E+000	1.2796457E+000	1.000000000000000E+000	12	1.3408405E-001	1.1032030E-004	8.236215478033632E-005	0.0000000E+000	-1.0003982E+002	1.7343555E-004	8.0428249E-004	8.2276983E-004	7.7831070E+001	-2.945743294229626E-009
8.9115974E+001	2.7067032E+002	1.3216323E+003	1.3490643E+003	-7.8425873E+001	5.527171787861880E+001	-3.9255992E-003	2.3924715E-004	1.3513066E+000	1.2969102E+000	1.000000000000000E+000	12	1.3405007E-001	9.9365221E-005	8.232276420464182E-005	0.0000000E+000	-1.0014404E+002	1.4872200E-004	7.2618178E-004	7.4125448E-004	7.8425873E+001	-3.939057569449862E-008
7.9415527E+001	2.8656540E+002	1.4700240E+003	1.4976951E+003	-7.8969147E+001	5.603622986158007E+001	-3.9321412E-003	2.1803008E-004	1.3632963E+000	1.3133858E+000	1.000000000000000E+000	12	1.3401753E-001	8.9482521E-005	8.247469405242737E-005	0.0000000E+000	-1.0008792E+002	1.2775470E-004	6.5535662E-004	6.6769269E-004	7.8969147E+001	1.519298477855533E-007
7.0838745E+001	3.0384781E+002	1.6337234E+003	1.6617388E+003	-7.9464233E+001	5.678738893722766E+001	-3.9265687E-003	2.3165856E-004	1.3752154E+000	1.3292366E+000	1.000000000000000E+000	12	1.3399525E-001	8.0635567E-005	8.249192339460468E-005	0.0000000E+000	-1.0007990E+002	1.1003492E-004	5.9163390E-004	6.0177932E-004	7.9464233E+001	1.722934217731232E-008
6.3082302E+001	3.2359515E+002	1.8191707E+003	1.8477272E+003	-7.9913689E+001	5.756785036099609E+001	-3.9266059E-003	2.4903438E-004	1.3868809E+000	1.3443438E+000	1.000000000000000E+000	12	1.3397285E-001	7.2506838E-005	8.251477340473482E-005	0.0000000E+000	-1.0007990E+002	9.4782132E-005	5.3284114E-004	5.4120546E-004	7.9913689E+001	2.285001013013386E-008
5.6241817E+001	3.4468613E+002	2.0240376E+003	2.0531772E+003	-8.0335457E+001	5.831232778300182E+001	-3.9245742E-003	2.4500731E-004	1.3981129E+000	1.3587091E+000	1.000000000000000E+000	12	1.3395372E-001	6.5242159E-005	8.256541690637965E-005	0.0000000E+000	-1.0005585E+002	8.1765640E-005	4.8013759E-004	4.8705001E-004	8.0335457E+001	5.064350164483446E-008
5.0144413E+001	3.6843195E+002	2.2521162E+003	2.2820537E+003	-8.0709076E+001	5.906918125893571E+001	-3.9250590E-003	2.3396951E-004	1.4093107E+000	1.3725767E+000	1.000000000000000E+000	12	1.3394204E-001	5.8693640E-005	8.261091604344074E-005	0.0000000E+000	-1.0009594E+002	7.0746581E-005	4.3245315E-004	4.3820179E-004	8.0709076E+001	4.549913706108672E-008
4.4671219E+001	3.9573114E+002	2.5084597E+003	2.5394829E+003	-8.1034981E+001	5.983320454854402E+001	-3.9261957E-003	2.4578974E-004	1.4203167E+000	1.3858265E+000	1.000000000000000E+000	12	1.3393345E-001	5.2740445E-005	8.264232060143816E-005	0.0000000E+000	-1.0006387E+002	6.1363447E-005	3.8897039E-004	3.9378097E-004	8.1034981E+001	3.140455799742676E-008
3.9808922E+001	4.2559494E+002	2.7939895E+003	2.8262180E+003	-8.1338989E+001	6.084873219684232E+001	-3.9292336E-003	3.1715139E-005	1.4309186E+000	1.3984700E+000	1.000000000000000E+000	13	1.3422564E-001	4.7493024E-005	8.271963436945104E-005	0.0000000E+000	-1.0003180E+002	5.3282554E-005	3.4979486E-004	3.5382973E-004	8.1338989E+001	7.731376801288004E-008
3.5465305E+001	4.5935706E+002	3.1120166E+003	3.1457361E+003	-8.1603340E+001	6.159912617909140E+001	-3.9351047E-003	3.2087788E-005	1.4420308E+000	1.4112819E+000	1.000000000000000E+000	13	1.3416180E-001	4.2648779E-005	8.264614982139029E-005	0.0000000E+000	-1.0009594E+002	4.6420093E-005	3.1448313E-004	3.1789063E-004	8.1603340E+001	-7.348454806075733E-008
3.1629551E+001	4.9672412E+002	3.4633140E+003	3.4987539E+003	-8.1838043E+001	6.232344853351242E+001	-3.9331289E-003	3.4791949E-005	1.4528984E+000	1.4236138E+000	1.000000000000000E+000	13	1.3410436E-001	3.8329177E-005	8.261349682997843E-005	0.0000000E+000	-1.0007990E+002	4.0577790E-005	2.8292093E-004	2.8581603E-004	8.1838043E+001	-3.265299141185364E-008
2.8170074E+001	5.4050452E+002	3.8590935E+003	3.8967612E+003	-8.2027023E+001	6.312876790514565E+001	-3.9316383E-003	3.0458901E-005	1.4640194E+000	1.4358525E+000	1.000000000000000E+000	13	1.3406272E-001	3.4403627E-005	8.266108980330783E-005	0.0000000E+000	-1.0010395E+002	3.5595211E-005	2.5414274E-004	2.5662337E-004	8.2027023E+001	4.759297332939587E-008
2.5104435E+001	5.8824042E+002	4.2977510E+003	4.3378208E+003	-8.2206261E+001	6.388491690103547E+001	-3.9328123E-003	3.0837040E-005	1.4751236E+000	1.4479972E+000	1.000000000000000E+000	13	1.3402820E-001	3.0897587E-005	8.268771873913324E-005	0.0000000E+000	-1.0007188E+002	3.1261621E-005	2.2840101E-004	2.3053050E-004	8.2206261E+001	2.662893582540599E-008
2.2385387E+001	6.4214716E+002	4.7837661E+003	4.8266729E+003	-8.2354622E+001	6.457142744029989E+001	-3.9368197E-003	2.7161846E-005	1.4862285E+000	1.4599223E+000	1.000000000000000E+000	13	1.3400227E-001	2.7762866E-005	8.267007393449563E-005	0.0000000E+000	-1.0007188E+002	2.7563787E-005	2.0534030E-004	2.0718205E-004	8.2354622E+001	-1.764480463760485E-008
1.9955299E+001	7.0373914E+002	5.3258999E+003	5.3721929E+003	-8.2472816E+001	6.533320982314763E+001	-3.9329054E-003	3.0879633E-005	1.4975071E+000	1.4718099E+000	1.000000000000000E+000	13	1.3398303E-001	2.4940100E-005	8.272021682549915E-005	0.0000000E+000	-1.0006387E+002	2.4384188E-005	1.8453969E-004	1.8614372E-004	8.2472816E+001	5.014289100351477E-008
1.7796129E+001	7.7276312E+002	5.9278789E+003	5.9780356E+003	-8.2572762E+001	6.617752490323619E+001	-3.9313212E-003	2.7205369E-005	1.5086735E+000	1.4834636E+000	1.000000000000000E+000	13	1.3396005E-001	2.2408707E-005	8.272148322696719E-005	0.0000000E+000	-1.0007188E+002	2.1623662E-005	1.6587552E-004	1.6727902E-004	8.2572762E+001	1.266401468039786E-009
1.5857576E+001	8.5055072E+002	6.6002275E+003	6.6548057E+003	-8.2656944E+001	6.689895003085257E+001	-3.9411807E-003	2.9438974E-005	1.5206329E+000	1.4957929E+000	1.000000000000000E+000	13	1.3394597E-001	2.0127705E-005	8.266569751075561E-005	0.0000000E+000	-1.0007990E+002	1.9205663E-005	1.4903497E-004	1.5026735E-004	8.2656944E+001	-5.578571621157424E-008
1.4118974E+001	9.4099213E+002	7.3583066E+003	7.4182305E+003	-8.2712479E+001	6.770126076226006E+001	-3.9277426E-003	3.0447200E-005	1.5319307E+000	1.5072811E+000	1.000000000000000E+000	13	1.3393724E-001	1.8055147E-005	8.266674764825641E-005	0.0000000E+000	-1.0007990E+002	1.7099574E-005	1.3371411E-004	1.3480303E-004	8.2712479E+001	1.050137500802030E-009
1.2600808E+001	1.0418099E+003	8.1820518E+003	8.2481113E+003	-8.2743652E+001	6.859184872460901E+001	-3.9282460E-003	2.1749389E-005	1.5436879E+000	1.5190600E+000	1.000000000000000E+000	13	1.3392851E-001	1.6237476E-005	8.273231957357024E-005	0.0000000E+000	-1.0003982E+002	1.5313672E-005	1.2026887E-004	1.2123988E-004	8.2743652E+001	6.557192531382356E-008
1.1224856E+001	1.1585851E+003	9.1117295E+003	9.1850928E+003	-8.2753548E+001	6.927593470376451E+001	-3.9336695E-003	2.6723501E-005	1.5561036E+000	1.5313450E+000	1.000000000000000E+000	13	1.3392210E-001	1.4580376E-005	8.264229825871250E-005	0.0000000E+000	-1.0007188E+002	1.3732854E-005	1.0800247E-004	1.0887206E-004	8.2753548E+001	-9.002131485773691E-008
1.0003201E+001	1.2923286E+003	1.0142138E+004	1.0224142E+004	-8.2738403E+001	7.003666647325008E+001	-3.9311349E-003	2.7135304E-005	1.5687425E+000	1.5436788E+000	1.000000000000000E+000	13	1.3391472E-001	1.3097894E-005	8.272566322555091E-005	0.0000000E+000	-1.0004784E+002	1.2362872E-005	9.7023243E-005	9.7807722E-005	8.2738403E+001	8.336496683841363E-008
8.9183798E+000	1.4328046E+003	1.1284807E+004	1.1375403E+004	-8.2764008E+001	7.088100787333678E+001	-3.9212755E-003	2.9383742E-005	1.5813938E+000	1.5563049E+000	1.000000000000000E+000	13	1.3391179E-001	1.1772047E-005	8.269098513394540E-005	0.0000000E+000	-1.0005585E+002	1.1072701E-005	8.7208842E-005	8.7908971E-005	8.2764008E+001	-3.467809160551008E-008
7.9395342E+000	1.6039045E+003	1.2575798E+004	1.2677665E+004	-8.2731796E+001	7.181967178460764E+001	-3.9209770E-003	2.6653444E-005	1.5940046E+000	1.5684913E+000	1.000000000000000E+000	13	1.3390419E-001	1.0562212E-005	8.274566551904475E-005	0.0000000E+000	-1.0008792E+002	9.9792942E-006	7.8245073E-005	7.8878882E-005	8.2731796E+001	5.468038509934508E-008
7.0765405E+000	1.7971970E+003	1.3994132E+004	1.4109063E+004	-8.2681847E+001	7.237802885111887E+001	-3.9405287E-003	2.6417672E-005	1.6071380E+000	1.5810616E+000	1.000000000000000E+000	13	1.3389944E-001	9.4903144E-006	8.276122321537196E-005	0.0000000E+000	-1.0007990E+002	9.0281601E-006	7.0299087E-005	7.0876435E-005	8.2681847E+001	1.555769632720816E-008
6.3105822E+000	1.9933362E+003	1.5635869E+004	1.5762417E+004	-8.2734848E+001	7.299820245386218E+001	-3.9309482E-003	1.1987214E-005	1.6129789E+000	1.5871834E+000	1.000000000000000E+000	13	1.3391069E-001	8.4955682E-006	8.279199309927147E-005	0.0000000E+000	-1.0006387E+002	8.0229647E-006	6.2932711E-005	6.3442050E-005	8.2734848E+001	3.076988389950908E-008
5.6205034E+000	2.2864587E+003	1.7386078E+004	1.7535781E+004	-8.2507973E+001	7.368467096652603E+001	-3.9320295E-003	1.5136807E-005	1.6287082E+000	1.6010184E+000	1.000000000000000E+000	13	1.3389227E-001	7.6353754E-006	8.278746513785963E-005	0.0000000E+000	-1.0007188E+002	7.4355530E-006	5.6539429E-005	5.7026260E-005	8.2507973E+001	-4.527961411834847E-009
5.0144415E+000	2.5982617E+003	1.9280412E+004	1.9454697E+004	-8.2324959E+001	7.444217921581003E+001	-3.9207349E-003	1.3895584E-005	1.6461949E+000	1.6168321E+000	1.000000000000000E+000	13	1.3389298E-001	6.8822960E-006	8.272043966173300E-005	0.0000000E+000	-1.0011197E+002	6.8648969E-006	5.0940987E-005	5.1401468E-005	8.2324959E+001	-6.702547612663146E-008
4.4693937E+000	2.8514497E+003	2.1480238E+004	2.1668674E+004	-8.2438332E+001	7.528349813577370E+001	-3.9305757E-003	3.9831397E-005	1.6578012E+000	1.6290933E+000	1.000000000000000E+000	13	1.3390054E-001	6.1794526E-006	8.268087758473969E-005	0.0000000E+000	-1.0007188E+002	6.0729708E-006	4.5748242E-005	4.6149569E-005	8.2438332E+001	-3.956207699331096E-008
3.9778514E+000	3.2836074E+003	2.3873533E+004	2.4098291E+004	-8.2168579E+001	7.622019879359868E+001	-3.9255153E-003	3.9185597E-005	1.6759262E+000	1.6448102E+000	1.000000000000000E+000	13	1.3389398E-001	5.5561609E-006	8.277149945567221E-005	0.0000000E+000	-1.0009594E+002	5.6542963E-006	4.1109688E-005	4.1496718E-005	8.2168579E+001	9.062187093252351E-008
3.5511365E+000	3.6617451E+003	2.6539934E+004	2.6791350E+004	-8.2144432E+001	7.726137052304694E+001	-3.9113038E-003	2.1599024E-005	1.6887017E+000	1.6571561E+000	1.000000000000000E+000	13	1.3389550E-001	4.9977139E-006	8.281232804355062E-005	0.0000000E+000	-1.0006387E+002	5.1015113E-006	3.6975209E-005	3.7325481E-005	8.2144432E+001	4.082858787841058E-008
3.1603966E+000	4.2779561E+003	2.9598047E+004	2.9905605E+004	-8.1775703E+001	7.878824736890965E+001	-3.9067562E-003	-1.5668978E-005	1.7014356E+000	1.6666193E+000	1.000000000000000E+000	14	1.3391122E-001	4.4777967E-006	8.275295553737204E-005	0.0000000E+000	-1.0009594E+002	4.7833387E-006	3.3094653E-005	3.3438548E-005	8.1775703E+001	-5.937250617857976E-008
2.8183618E+000	4.6984204E+003	3.2907355E+004	3.3241078E+004	-8.1874390E+001	8.008363460379405E+001	-3.9085234E-003	1.7177015E-005	1.7160518E+000	1.6817683E+000	1.000000000000000E+000	14	1.3390857E-001	4.0284062E-006	8.272269335192039E-005	0.0000000E+000	-1.0010395E+002	4.2520805E-006	2.9781242E-005	3.0083260E-005	8.1874390E+001	-3.026218545165141E-008
2.5136740E+000	5.3651958E+003	3.6381816E+004	3.6775289E+004	-8.1611099E+001	8.152765288571391E+001	-3.9112135E-003	2.5881850E-006	1.7403108E+000	1.7032695E+000	1.000000000000000E+000	14	1.3390657E-001	3.6412105E-006	8.283210947386477E-005	0.0000000E+000	-1.0010395E+002	3.9671036E-006	2.6901233E-005	2.7192173E-005	8.1611099E+001	1.094161219443787E-007
2.2398219E+000	6.2537861E+003	4.0439348E+004	4.0920051E+004	-8.1209068E+001	8.314238168238080E+001	-3.9127669E-003	-4.5580127E-006	1.7571243E+000	1.7160836E+000	1.000000000000000E+000	14	1.3390528E-001	3.2723635E-006	8.272401891390311E-005	0.0000000E+000	-1.0004784E+002	3.7348298E-006	2.4150815E-005	2.4437897E-005	8.1209068E+001	-1.080905599616628E-007
1.9970604E+000	7.1211934E+003	4.5018469E+004	4.5578219E+004	-8.1011215E+001	8.494567075472878E+001	-3.9079539E-003	1.3510003E-005	1.7702646E+000	1.7270501E+000	1.000000000000000E+000	14	1.3390063E-001	2.9378205E-006	8.278169281894447E-005	0.0000000E+000	-1.0011197E+002	3.4279781E-006	2.1670854E-005	2.1940305E-005	8.1011215E+001	5.767390504136569E-008
1.7796129E+000	8.0111543E+003	4.9937609E+004	5.0576113E+004	-8.0886078E+001	8.696395423723152E+001	-3.9074277E-003	-2.1335522E-006	1.7908815E+000	1.7459484E+000	1.000000000000000E+000	14	1.3389957E-001	2.6474863E-006	8.280910757260669E-005	0.0000000E+000	-1.0007188E+002	3.1318737E-006	1.9522564E-005	1.9772180E-005	8.0886078E+001	2.741475366221924E-008
1.5846854E+000	9.1567529E+003	5.5367918E+004	5.6119984E+004	-8.0609413E+001	8.922312162452727E+001	-3.9026299E-003	5.6667432E-006	1.8139231E+000	1.7656320E+000	1.000000000000000E+000	14	1.3389921E-001	2.3859452E-006	8.272472288745282E-005	0.0000000E+000	-1.0005585E+002	2.9074113E-006	1.7580172E-005	1.7818964E-005	8.0609413E+001	-8.438468515387012E-008
1.4122382E+000	1.0537426E+004	6.1299355E+004	6.2198461E+004	-8.0246124E+001	9.175211281128577E+001	-3.9048984E-003	2.9006603E-006	1.8384687E+000	1.7857012E+000	1.000000000000000E+000	14	1.3389555E-001	2.1527148E-006	8.284960136142076E-005	0.0000000E+000	-1.0007188E+002	2.7238002E-006	1.5845162E-005	1.6077569E-005	8.0246124E+001	1.248784739679406E-007
1.2596743E+000	1.2154363E+004	6.7855789E+004	6.8935742E+004	-7.9844841E+001	9.457994313229574E+001	-3.9001231E-003	1.1966853E-006	1.8619797E+000	1.8040968E+000	1.000000000000000E+000	14	1.3389398E-001	1.9423012E-006	8.271902872224644E-005	0.0000000E+000	-1.0008792E+002	2.5576635E-006	1.4279007E-005	1.4506263E-005	7.9844841E+001	-1.305726391743198E-007
1.1224856E+000	1.3952899E+004	7.5217609E+004	7.6500797E+004	-7.9491058E+001	9.774797253610450E+001	-3.9070682E-003	4.7827334E-006	1.8850366E+000	1.8223296E+000	1.000000000000000E+000	14	1.3389568E-001	1.7502522E-006	8.284519015527622E-005	0.0000000E+000	-1.0003982E+002	2.3841446E-006	1.2852499E-005	1.3071759E-005	7.9491058E+001	1.261614330297774E-007
1.0000638E+000	1.6017522E+004	8.3322219E+004	8.4847820E+004	-7.9118439E+001	1.012970793713466E+002	-3.9086291E-003	1.6393428E-006	1.9099923E+000	1.8419248E+000	1.000000000000000E+000	14	1.3389729E-001	1.5780876E-006	8.274938441370038E-005	0.0000000E+000	-1.0007990E+002	2.2249178E-006	1.1573892E-005	1.1785806E-005	7.9118439E+001	-9.580574157584134E-008