EC-Lab ASCII FILE
Nb header lines : 75                          

Potentio Electrochemical Impedance Spectroscopy

Run on channel : 1 (SN 20909)
User : 
CE vs. WE compliance from -10 V to 10 V
Electrode connection : standard
Ewe ctrl range : min = -10.00 V, max = 10.00 V
Safety Limits :
	Do not start on E overload
Acquisition started on : 01/22/2020 09:43:49
Technique started on : 01/22/2020 09:43:50
Saved on :
	File : DE_49_9_30.mpr
	Directory : P:\Chemistry\Data\VMP3\Kyler\DOE\DE_49\30C\
	Host : 10.0.4.99
Device : VMP3 (SN 0183)
Address : USB
EC-Lab for windows v11.33 (software)
Internet server v11.32 (firmware)
Command interpretor v11.33 (firmware)
Electrode material : 
Initial state : 
Electrolyte : 
Comments : 
Electrode surface area : 0.001 cm²
Characteristic mass : 0.001 g
Equivalent Weight : 0.000 g/eq.
Density : 0.000 g/cm3
Record Analogic IN 1
Cycle Definition : Charge/Discharge alternance
External device configuration :
   device type : Thermostat
   device name : Other
   Analog OUT : 
      mode : E/V
      unit : T/°C
      max : 400.000 at 5.000 V
      min : -100.000 at 0.000 V
      current : 0.000
   Analog IN 1 : 
      unit : T/°C
      max : 400.000 at 5.000 V
      min : -100.000 at 0.000 V
Mode                Single sine         
E (V)               0.0000              
vs.                 Eoc                 
tE (h:m:s)          0:00:0.0000         
record              0                   
dI                  1.000               
unit dI             mA                  
dt (s)              0.000               
fi                  1.000               
unit fi             MHz                 
ff                  1.000               
unit ff             Hz                  
Nd                  20                  
Points              per decade          
spacing             Logarithmic         
Va (mV)             128.0               
pw                  0.50                
Na                  3                   
corr                0                   
E range min (V)     -10.000             
E range max (V)     10.000              
I Range             Auto                
Bandwidth           5                   
nc cycles           0                   
goto Ns'            0                   
nr cycles           0                   
inc. cycle          1                   

freq/Hz	Re(Z)/Ohm	-Im(Z)/Ohm	|Z|/Ohm	Phase(Z)/deg	time/s	<Ewe>/V	<I>/mA	Cs/µF	Cp/µF	cycle number	I Range	|Ewe|/V	|I|/A	(Q-Qo)/mA.h	Analog OUT/V	Analog IN 1/V	Re(Y)/Ohm-1	Im(Y)/Ohm-1	|Y|/Ohm-1	Phase(Y)/deg	dq/mA.h	
1.0000186E+006	3.2982964E+001	2.0264922E+002	2.0531581E+002	-8.0755661E+001	1.951484519318910E+000	-1.8069475E-003	3.1631503E-003	7.8535703E-004	7.6508941E-004	1.000000000000000E+000	11	5.7539376E-003	2.8024815E-005	8.524872779558387E-007	0.0000000E+000	-1.0006999E+002	7.8242901E-004	4.8072883E-003	4.8705456E-003	8.0755661E+001	8.524872779558387E-007
8.9124669E+005	3.9379498E+001	2.2246672E+002	2.2592519E+002	-7.9961884E+001	2.547496947663603E+000	-1.2730832E-003	3.1784549E-003	8.0270716E-004	7.7831961E-004	1.000000000000000E+000	11	9.2394548E-003	4.0896080E-005	1.272279279180819E-006	0.0000000E+000	-1.0011009E+002	7.7150890E-004	4.3584872E-003	4.4262442E-003	7.9961884E+001	4.197920012249800E-007
7.9433269E+005	4.6115387E+001	2.4477170E+002	2.4907793E+002	-7.9330444E+001	3.143488869274734E+000	-8.2833582E-004	3.2812895E-003	8.1857125E-004	7.9051190E-004	1.000000000000000E+000	11	1.4092888E-002	5.6580237E-005	1.905502005450722E-006	0.0000000E+000	-1.0006197E+002	7.4331946E-004	3.9453972E-003	4.0148078E-003	7.9330444E+001	6.332227262699032E-007
7.0794981E+005	5.2711895E+001	2.7031552E+002	2.7540701E+002	-7.8965714E+001	3.739490364241647E+000	-4.1760199E-004	3.2176480E-003	8.3166163E-004	8.0119574E-004	1.000000000000000E+000	11	2.0291153E-002	7.3676965E-005	2.409300157298023E-006	0.0000000E+000	-1.0004594E+002	6.9495826E-004	3.5638630E-003	3.6309897E-003	7.8965714E+001	5.037981518473012E-007
6.3095681E+005	5.9499557E+001	3.0014435E+002	3.0598502E+002	-7.8787254E+001	4.334481032536132E+000	-2.6597310E-005	3.2661732E-003	8.4040832E-004	8.0863095E-004	1.000000000000000E+000	11	2.7698243E-002	9.0521564E-005	2.955232192684788E-006	0.0000000E+000	-1.0007802E+002	6.3549698E-004	3.2057515E-003	3.2681338E-003	7.8787254E+001	5.459320353867650E-007
5.6234225E+005	6.6441391E+001	3.3309375E+002	3.3965558E+002	-7.8719406E+001	4.930485780845629E+000	3.3253868E-004	3.2503100E-003	8.4967521E-004	8.1716245E-004	1.000000000000000E+000	11	3.6040947E-002	1.0611027E-004	3.515818285790576E-006	0.0000000E+000	-1.0008604E+002	5.7591870E-004	2.8872807E-003	2.9441589E-003	7.8719406E+001	5.605860931057881E-007
5.0120619E+005	7.3989532E+001	3.6975864E+002	3.7708871E+002	-7.8684433E+001	5.527496689202962E+000	6.3517195E-004	3.2499365E-003	8.5878692E-004	8.2572416E-004	1.000000000000000E+000	11	4.5215014E-002	1.1990551E-004	4.317677587117537E-006	0.0000000E+000	-1.0007802E+002	5.2033528E-004	2.6003467E-003	2.6518959E-003	7.8684433E+001	8.018593013269610E-007
4.4668572E+005	8.2182106E+001	4.1015189E+002	4.1830429E+002	-7.8669685E+001	6.123492584127234E+000	8.8225375E-004	3.2337005E-003	8.6870702E-004	8.3517621E-004	1.000000000000000E+000	11	5.5153970E-002	1.3185131E-004	4.578754539025087E-006	0.0000000E+000	-1.0009406E+002	4.6966993E-004	2.3440134E-003	2.3906042E-003	7.8669685E+001	2.610769519075499E-007
3.9810347E+005	9.1270988E+001	4.5475787E+002	4.6382660E+002	-7.8651375E+001	6.719493332464481E+000	1.0393050E-003	3.2626272E-003	8.7911153E-004	8.4507081E-004	1.000000000000000E+000	11	6.5883636E-002	1.4204367E-004	5.220349718504521E-006	0.0000000E+000	-1.0011009E+002	4.2424971E-004	2.1138245E-003	2.1559782E-003	7.8651375E+001	6.415951794794337E-007
3.5480997E+005	1.0166394E+002	5.0439401E+002	5.1453754E+002	-7.8604340E+001	7.315495307411766E+000	1.1472568E-003	3.1820035E-003	8.8931253E-004	8.5459457E-004	1.000000000000000E+000	11	7.7551745E-002	1.5072126E-004	5.847758384967973E-006	0.0000000E+000	-1.0004594E+002	3.8400132E-004	1.9051790E-003	1.9434928E-003	7.8604340E+001	6.274086664634524E-007
3.1622997E+005	1.5249118E+002	5.9063654E+002	6.1000415E+002	-7.5523445E+001	8.213472203438869E+000	1.1569152E-003	1.2548047E-003	8.5211225E-004	7.9886214E-004	1.000000000000000E+000	12	3.8637161E-002	6.3339176E-005	6.115347585207524E-006	0.0000000E+000	-1.0011009E+002	4.0980676E-004	1.5872843E-003	1.6393331E-003	7.5523445E+001	2.675892002395506E-007
2.8183453E+005	1.6626212E+002	6.5065869E+002	6.7156519E+002	-7.5666000E+001	8.808489565009950E+000	1.1985183E-003	1.2290862E-003	8.6790603E-004	8.1470952E-004	1.000000000000000E+000	12	4.7637466E-002	7.0934984E-005	6.327336708055049E-006	0.0000000E+000	-1.0006999E+002	3.6865220E-004	1.4427028E-003	1.4890587E-003	7.5666000E+001	2.119891228475250E-007
2.5118764E+005	1.8148227E+002	7.1696069E+002	7.3957318E+002	-7.5795242E+001	9.404488739994122E+000	1.2365410E-003	1.2358987E-003	8.8374410E-004	8.3052920E-004	1.000000000000000E+000	12	5.8524758E-002	7.9133155E-005	6.493993487027587E-006	0.0000000E+000	-1.0012614E+002	3.3179662E-004	1.3107898E-003	1.3521313E-003	7.5795242E+001	1.666567789725380E-007
2.2387173E+005	1.9800459E+002	7.9001532E+002	8.1445074E+002	-7.5929581E+001	1.000048348828568E+001	1.2461267E-003	1.2394263E-003	8.9988159E-004	8.4669446E-004	1.000000000000000E+000	12	7.1613826E-002	8.7928980E-005	6.842335031749422E-006	0.0000000E+000	-1.0006197E+002	2.9850088E-004	1.1909838E-003	1.2278213E-003	7.5929581E+001	3.483415447218352E-007
1.9954350E+005	2.1594212E+002	8.7059515E+002	8.9697656E+002	-7.6069519E+001	1.059748530332581E+001	1.3025549E-003	1.2294973E-003	9.1614941E-004	8.6305133E-004	1.000000000000000E+000	12	8.7318063E-002	9.7347096E-005	6.825878150740917E-006	0.0000000E+000	-1.0006999E+002	2.6839544E-004	1.0820668E-003	1.1148563E-003	7.6069519E+001	-1.645688100850542E-008
1.7783180E+005	2.3569022E+002	9.5960077E+002	9.8812122E+002	-7.6200584E+001	1.119247178491787E+001	1.3353565E-003	1.2503449E-003	9.3265303E-004	8.7959116E-004	1.000000000000000E+000	12	1.0609236E-001	1.0736776E-004	6.840539971131458E-006	0.0000000E+000	-1.0006197E+002	2.4139098E-004	9.8281133E-004	1.0120216E-003	7.6200584E+001	1.466182039054152E-008
1.5848613E+005	2.5696524E+002	1.0576332E+003	1.0884021E+003	-7.6343880E+001	1.165147516669822E+001	1.3514129E-003	1.2631299E-003	9.4949745E-004	8.9657208E-004	1.000000000000000E+000	12	1.2829857E-001	1.1787791E-004	6.936581269236033E-006	0.0000000E+000	-1.0007802E+002	2.1691801E-004	8.9280441E-004	9.1877807E-004	7.6343880E+001	9.604129810457480E-008
1.4125594E+005	2.7964642E+002	1.1664016E+003	1.1994561E+003	-7.6517738E+001	1.224649207500624E+001	1.4384603E-003	1.2582024E-003	9.6597371E-004	9.1346697E-004	1.000000000000000E+000	12	1.3002263E-001	1.0840133E-004	7.231565252131582E-006	0.0000000E+000	-1.0002989E+002	1.9437504E-004	8.1073592E-004	8.3371124E-004	7.6517738E+001	2.949839828955487E-007
1.2590930E+005	3.0450967E+002	1.2864448E+003	1.3219934E+003	-7.6682831E+001	1.284348010332906E+001	1.4830469E-003	1.2620285E-003	9.8258734E-004	9.3045406E-004	1.000000000000000E+000	12	1.3075560E-001	9.8907905E-005	7.358478218141246E-006	0.0000000E+000	-1.0010207E+002	1.7423790E-004	7.3609286E-004	7.5643341E-004	7.6682831E+001	1.269129660096649E-007
1.1220494E+005	3.3121301E+002	1.4196184E+003	1.4577443E+003	-7.6867172E+001	1.343948799828650E+001	1.5758005E-003	1.2379892E-003	9.9916337E-004	9.4758265E-004	1.000000000000000E+000	12	1.3079596E-001	8.9724897E-005	7.641941632858006E-006	0.0000000E+000	-1.0006197E+002	1.5586363E-004	6.6804991E-004	6.8599137E-004	7.6867172E+001	2.834634147167597E-007
1.0000371E+005	3.6005130E+002	1.5668713E+003	1.6077073E+003	-7.7058662E+001	1.403448266655323E+001	1.5859822E-003	1.2233565E-003	1.0157122E-003	9.6476910E-004	1.000000000000000E+000	12	1.3060257E-001	8.1235288E-005	7.900485281256705E-006	0.0000000E+000	-1.0006197E+002	1.3929982E-004	6.0620485E-004	6.2200380E-004	7.7058662E+001	2.585436483986985E-007
8.9129305E+004	3.9136011E+002	1.7300447E+003	1.7737579E+003	-7.7253433E+001	1.462949666814529E+001	1.6295617E-003	1.2254841E-003	1.0321487E-003	9.8190224E-004	1.000000000000000E+000	12	1.3025011E-001	7.3431729E-005	7.918031631398207E-006	0.0000000E+000	-1.0013416E+002	1.2439070E-004	5.4988085E-004	5.6377478E-004	7.7253433E+001	1.754635014150283E-008
7.9433273E+004	4.2552728E+002	1.9113943E+003	1.9581884E+003	-7.7449112E+001	1.522549741648254E+001	1.6231096E-003	1.2304295E-003	1.0482562E-003	9.9875510E-004	1.000000000000000E+000	12	1.3002554E-001	6.6400935E-005	8.144428508948042E-006	0.0000000E+000	-1.0006999E+002	1.1097331E-004	4.9847271E-004	5.1067612E-004	7.7449112E+001	2.263968775498341E-007
7.0794977E+004	4.6207141E+002	2.1124636E+003	2.1624089E+003	-7.7661690E+001	1.582048917809152E+001	1.6488807E-003	1.2324449E-003	1.0642126E-003	1.0156201E-003	1.000000000000000E+000	12	1.2963305E-001	5.9948448E-005	8.328734968016913E-006	0.0000000E+000	-1.0006999E+002	9.8817400E-005	4.5176601E-004	4.6244721E-004	7.7661690E+001	1.843064590688713E-007
6.3093828E+004	5.0267130E+002	2.3356465E+003	2.3891260E+003	-7.7854225E+001	1.641647424639086E+001	1.6568805E-003	1.2093203E-003	1.0800059E-003	1.0321962E-003	1.000000000000000E+000	12	1.2933844E-001	5.4136301E-005	8.496680951695301E-006	0.0000000E+000	-1.0006999E+002	8.8065543E-005	4.0919377E-004	4.1856311E-004	7.7854225E+001	1.679459836783880E-007
5.6237012E+004	5.4634521E+002	2.5837974E+003	2.6409282E+003	-7.8060646E+001	1.687647376154200E+001	1.6692071E-003	1.2245126E-003	1.0953160E-003	1.0484389E-003	1.000000000000000E+000	12	1.3884376E-001	5.2573847E-005	8.612642752625561E-006	0.0000000E+000	-1.0003791E+002	7.8334670E-005	3.7046336E-004	3.7865475E-004	7.8060646E+001	1.159618009302605E-007
5.0122477E+004	5.9439996E+002	2.8583547E+003	2.9195039E+003	-7.8252663E+001	1.747247317651636E+001	1.6804140E-003	1.1987750E-003	1.1108910E-003	1.0648430E-003	1.000000000000000E+000	12	1.2998897E-001	4.4524335E-005	8.906303404043228E-006	0.0000000E+000	-1.0006999E+002	6.9736590E-005	3.3534976E-004	3.4252394E-004	7.8252663E+001	2.936606514176668E-007
4.4666715E+004	6.4622510E+002	3.1640881E+003	3.2294055E+003	-7.8456810E+001	1.793147557167686E+001	1.6783628E-003	1.1888085E-003	1.1261274E-003	1.0810344E-003	1.000000000000000E+000	12	1.3533294E-001	4.1906456E-005	9.028090764398006E-006	0.0000000E+000	-1.0011009E+002	6.1963896E-005	3.0339148E-004	3.0965451E-004	7.8456810E+001	1.217873603547774E-007
3.9814063E+004	7.0598761E+002	3.5039297E+003	3.5743450E+003	-7.8608307E+001	1.839147436685744E+001	1.6720415E-003	1.2023398E-003	1.1408493E-003	1.0963421E-003	1.000000000000000E+000	12	1.3930939E-001	3.8974802E-005	9.176811462649260E-006	0.0000000E+000	-1.0007802E+002	5.5259137E-005	2.7426000E-004	2.7977154E-004	7.8608307E+001	1.487206982512548E-007
3.5480996E+004	7.6932379E+002	3.8829939E+003	3.9584719E+003	-7.8793320E+001	1.898649362180731E+001	1.6876118E-003	1.2222538E-003	1.1552012E-003	1.1115676E-003	1.000000000000000E+000	12	1.2935837E-001	3.2678865E-005	9.444384152298476E-006	0.0000000E+000	-1.0006999E+002	4.9096907E-005	2.4780584E-004	2.5262273E-004	7.8793320E+001	2.675726896492153E-007
3.1621143E+004	8.4139764E+002	4.3033237E+003	4.3848086E+003	-7.8936943E+001	1.944547436360153E+001	1.6847216E-003	1.1923166E-003	1.1696032E-003	1.1265366E-003	1.000000000000000E+000	12	1.3119578E-001	2.9920528E-005	9.618025306140074E-006	0.0000000E+000	-1.0006999E+002	4.3762280E-005	2.2382200E-004	2.2806013E-004	7.8936943E+001	1.736411538415984E-007
2.8188096E+004	1.1763234E+003	4.8306333E+003	4.9717959E+003	-7.6314087E+001	2.007249586001853E+001	1.6682370E-003	9.6703158E-004	1.1688272E-003	1.1033972E-003	1.000000000000000E+000	13	1.3030049E-001	2.6207932E-005	9.803936782964229E-006	0.0000000E+000	-1.0010207E+002	4.7588292E-005	1.9542381E-004	2.0113456E-004	7.6314087E+001	1.859114768241545E-007
2.5116910E+004	1.2685737E+003	5.3412026E+003	5.4897837E+003	-7.6639397E+001	2.066849586166791E+001	1.6790153E-003	9.6247729E-004	1.1863555E-003	1.1230072E-003	1.000000000000000E+000	13	1.3026300E-001	2.3728257E-005	9.983041728004386E-006	0.0000000E+000	-1.0002989E+002	4.2092546E-005	1.7722647E-004	1.8215654E-004	7.6639397E+001	1.791049450401571E-007
2.2389027E+004	1.3698462E+003	5.9073999E+003	6.0641450E+003	-7.6944618E+001	2.126448618332506E+001	1.6724326E-003	9.6344593E-004	1.2033405E-003	1.1419370E-003	1.000000000000000E+000	13	1.2939829E-001	2.1338257E-005	1.011243411348717E-005	0.0000000E+000	-1.0006999E+002	3.7250556E-005	1.6064131E-004	1.6490371E-004	7.6944618E+001	1.293923854827874E-007
1.9948783E+004	1.4846643E+003	6.5435669E+003	6.7098804E+003	-7.7216637E+001	2.172349457847304E+001	1.6822042E-003	9.6918707E-004	1.2192399E-003	1.1595479E-003	1.000000000000000E+000	13	1.3502552E-001	2.0123387E-005	1.022996531008291E-005	0.0000000E+000	-1.0011009E+002	3.2976048E-005	1.4533995E-004	1.4903395E-004	7.7216637E+001	1.175311965957405E-007
1.7786895E+004	1.6149229E+003	7.2467832E+003	7.4245435E+003	-7.7437096E+001	2.218349788032356E+001	1.6808989E-003	9.7620871E-004	1.2347378E-003	1.1763208E-003	1.000000000000000E+000	13	1.3568258E-001	1.8274872E-005	1.035845204915803E-005	0.0000000E+000	-1.0006197E+002	2.9296258E-005	1.3146368E-004	1.3468841E-004	7.7437096E+001	1.284867390751174E-007
1.5847686E+004	1.7607844E+003	8.0355737E+003	8.2262266E+003	-7.7640480E+001	2.264249755544006E+001	1.6847029E-003	9.7631139E-004	1.2497910E-003	1.1925314E-003	1.000000000000000E+000	13	1.3334599E-001	1.6209862E-005	1.046826711497837E-005	0.0000000E+000	-1.0006999E+002	2.6019858E-005	1.1874506E-004	1.2156242E-004	7.7640480E+001	1.098150658203346E-007
1.4121879E+004	1.9280763E+003	8.9109639E+003	9.1171680E+003	-7.7791046E+001	2.310149696390727E+001	1.6872017E-003	9.7274641E-004	1.2647450E-003	1.2081822E-003	1.000000000000000E+000	13	1.2975100E-001	1.4231503E-005	1.058066953863974E-005	0.0000000E+000	-1.0012614E+002	2.3195529E-005	1.0720246E-004	1.0968318E-004	7.7791046E+001	1.124024236613769E-007
1.2590932E+004	2.1195601E+003	9.8850723E+003	1.0109757E+004	-7.7897873E+001	2.356047554567340E+001	1.6752665E-003	9.7531459E-004	1.2787406E-003	1.2225333E-003	1.000000000000000E+000	13	1.2596786E-001	1.2460029E-005	1.070276992051908E-005	0.0000000E+000	-1.0006999E+002	2.0737873E-005	9.6716016E-005	9.8914345E-005	7.7897873E+001	1.221003818793376E-007
1.1217711E+004	2.3453721E+003	1.0969664E+004	1.1217589E+004	-7.7931564E+001	2.402048842087970E+001	1.6726370E-003	9.7021903E-004	1.2933695E-003	1.2368305E-003	1.000000000000000E+000	13	1.2246340E-001	1.0917088E-005	1.081984371986356E-005	0.0000000E+000	-1.0007802E+002	1.8638575E-005	8.7175467E-005	8.9145717E-005	7.7931564E+001	1.170737993444778E-007
1.0002229E+004	2.5982778E+003	1.2169087E+004	1.2443381E+004	-7.7947495E+001	2.447949654937838E+001	1.6798350E-003	9.7871141E-004	1.3075711E-003	1.2505599E-003	1.000000000000000E+000	13	1.1944384E-001	9.5989863E-006	1.093966039572696E-005	0.0000000E+000	-1.0009406E+002	1.6780647E-005	7.8592522E-005	8.0364014E-005	7.7947495E+001	1.198166758634016E-007
8.9149297E+003	2.8909431E+003	1.3511771E+004	1.3817580E+004	-7.7923233E+001	2.496191286563408E+001	1.6850190E-003	9.7489631E-004	1.3212650E-003	1.2634280E-003	1.000000000000000E+000	13	1.1689604E-001	8.4599505E-006	1.107519332749255E-005	0.0000000E+000	-1.0003791E+002	1.5141729E-005	7.0769856E-005	7.2371571E-005	7.7923233E+001	1.355329317655864E-007
7.9439976E+003	3.2569656E+003	1.5015742E+004	1.5364906E+004	-7.7761925E+001	2.564197761792457E+001	1.6864552E-003	9.6712256E-004	1.3342409E-003	1.2742892E-003	1.000000000000000E+000	13	1.2659213E-001	8.2390434E-006	1.125712003532079E-005	0.0000000E+000	-1.0008604E+002	1.3796001E-005	6.3604370E-005	6.5083375E-005	7.7761925E+001	1.819267078282478E-007
7.0822334E+003	3.6566821E+003	1.6644561E+004	1.7041500E+004	-7.7609398E+001	2.621885905865929E+001	1.6984082E-003	9.7391452E-004	1.3501362E-003	1.2879726E-003	1.000000000000000E+000	13	1.2472621E-001	7.3189694E-006	1.140792756937687E-005	0.0000000E+000	-1.0006197E+002	1.2591328E-005	5.7313471E-005	5.8680282E-005	7.7609398E+001	1.508075340560718E-007
6.3077344E+003	4.1430107E+003	1.8477340E+004	1.8936119E+004	-7.7362099E+001	2.685256466208375E+001	1.7207480E-003	9.8811078E-004	1.3655489E-003	1.3001822E-003	1.000000000000000E+000	13	1.2320313E-001	6.5062504E-006	1.157672601929274E-005	0.0000000E+000	-1.0006197E+002	1.1554044E-005	5.1529682E-005	5.2809130E-005	7.7362099E+001	1.687984499158753E-007
5.6210552E+003	4.7269321E+003	2.0510957E+004	2.1048592E+004	-7.7022270E+001	2.755325946866651E+001	1.7444119E-003	9.8392251E-004	1.3804362E-003	1.3108171E-003	1.000000000000000E+000	13	1.2197217E-001	5.7947905E-006	1.176212656326852E-005	0.0000000E+000	-1.0010207E+002	1.0669232E-005	4.6295612E-005	4.7509118E-005	7.7022270E+001	1.854005439757751E-007
5.0116035E+003	5.4154219E+003	2.2734875E+004	2.3370951E+004	-7.6601883E+001	2.831369091818488E+001	1.7577078E-003	9.9259580E-004	1.3968535E-003	1.3218531E-003	1.000000000000000E+000	13	1.2098563E-001	5.1767524E-006	1.196544618508991E-005	0.0000000E+000	-1.0006999E+002	9.9146982E-006	4.1623618E-005	4.2788160E-005	7.6601883E+001	2.033196218213917E-007
4.4664292E+003	6.2386260E+003	2.5214828E+004	2.5975143E+004	-7.6103027E+001	2.907371039428108E+001	1.7649431E-003	9.9387253E-004	1.4132001E-003	1.3316798E-003	1.000000000000000E+000	13	1.2018833E-001	4.6270516E-006	1.217093107706624E-005	0.0000000E+000	-1.0002989E+002	9.2464070E-006	3.7371465E-005	3.8498343E-005	7.6103027E+001	2.054848919763371E-007
3.9812742E+003	7.2096045E+003	2.7913055E+004	2.8829100E+004	-7.5517708E+001	2.983368469704874E+001	1.7591809E-003	1.0012656E-003	1.4321571E-003	1.3425895E-003	1.000000000000000E+000	13	1.1956441E-001	4.1473513E-006	1.238031536364901E-005	0.0000000E+000	-1.0007802E+002	8.6745958E-006	3.3584987E-005	3.4687175E-005	7.5517708E+001	2.093842865827655E-007
3.5465955E+003	8.4079033E+003	3.0924551E+004	3.2047164E+004	-7.4789841E+001	3.059396022648434E+001	1.7564398E-003	9.9015259E-004	1.4511258E-003	1.3512406E-003	1.000000000000000E+000	13	1.1905064E-001	3.7148575E-006	1.258675972486256E-005	0.0000000E+000	-1.0006999E+002	8.1866929E-006	3.0110934E-005	3.1204010E-005	7.4789841E+001	2.064443612135469E-007
3.1610112E+003	9.8311709E+003	3.4152531E+004	3.5539379E+004	-7.3940971E+001	3.135367831590702E+001	1.7619035E-003	9.9013769E-004	1.4742502E-003	1.3614363E-003	1.000000000000000E+000	13	1.1863780E-001	3.3382069E-006	1.279266339436991E-005	0.0000000E+000	-1.0006197E+002	7.7836912E-006	2.7039787E-005	2.8137802E-005	7.3940971E+001	2.059036695073546E-007
2.8172952E+003	1.3925998E+004	3.7762602E+004	4.0248570E+004	-6.9757156E+001	3.236493519059150E+001	1.7460908E-003	9.7054610E-004	1.4959803E-003	1.3168878E-003	1.000000000000000E+000	14	1.2823841E-001	3.1861607E-006	1.305918863935477E-005	0.0000000E+000	-1.0010207E+002	8.5965758E-006	2.3311004E-005	2.4845604E-005	6.9757156E+001	2.665252449848541E-007
2.5108032E+003	1.5944259E+004	4.1458699E+004	4.4418949E+004	-6.8964165E+001	3.312469693335879E+001	1.7448412E-003	9.6897699E-004	1.5289447E-003	1.3319459E-003	1.000000000000000E+000	14	1.2630066E-001	2.8433960E-006	1.326442486739274E-005	0.0000000E+000	-1.0002187E+002	8.0810514E-006	2.1012567E-005	2.2512915E-005	6.8964165E+001	2.052362280379741E-007
2.2378516E+003	1.8336277E+004	4.5446285E+004	4.9005957E+004	-6.8027328E+001	3.388496664946433E+001	1.7473584E-003	9.6292340E-004	1.5649140E-003	1.3458278E-003	1.000000000000000E+000	14	1.2463519E-001	2.5432662E-006	1.346950583930968E-005	0.0000000E+000	-1.0006197E+002	7.6350780E-006	1.8923463E-005	2.0405683E-005	6.8027328E+001	2.050809719169399E-007
1.9956389E+003	2.1186582E+004	4.9646977E+004	5.3978641E+004	-6.6889893E+001	3.464468948555441E+001	1.7454375E-003	9.5849164E-004	1.6063692E-003	1.3588987E-003	1.000000000000000E+000	14	1.2323623E-001	2.2830554E-006	1.366978924497986E-005	0.0000000E+000	-1.0007802E+002	7.2713833E-006	1.7039190E-005	1.8525847E-005	6.6889893E+001	2.002834056701829E-007
1.7782927E+003	2.4576094E+004	5.4163484E+004	5.9478293E+004	-6.5594345E+001	3.540493666831753E+001	1.7467242E-003	9.6338021E-004	1.6523813E-003	1.3702711E-003	1.000000000000000E+000	14	1.2205523E-001	2.0520970E-006	1.387222035954910E-005	0.0000000E+000	-1.0006999E+002	6.9469770E-006	1.5310508E-005	1.6812857E-005	6.5594345E+001	2.024311145692341E-007
1.5855076E+003	2.8440836E+004	5.8783598E+004	6.5302316E+004	-6.4181252E+001	3.616470558442234E+001	1.7396382E-003	9.6521690E-004	1.7076373E-003	1.3837282E-003	1.000000000000000E+000	14	1.2108959E-001	1.8542923E-006	1.407716066178061E-005	0.0000000E+000	-1.0006197E+002	6.6693760E-006	1.3784754E-005	1.5313393E-005	6.4181252E+001	2.049403022315096E-007
1.4118373E+003	3.3148766E+004	6.3602293E+004	7.1722328E+004	-6.2472004E+001	3.692520983386203E+001	1.7497079E-003	9.6967013E-004	1.7724041E-003	1.3937970E-003	1.000000000000000E+000	14	1.2030187E-001	1.6773279E-006	1.428028730913232E-005	0.0000000E+000	-1.0002989E+002	6.4440460E-006	1.2364143E-005	1.3942659E-005	6.2472004E+001	2.031266473517105E-007
1.2587914E+003	3.8432199E+004	6.8327094E+004	7.8394039E+004	-6.0643387E+001	3.768495341661037E+001	1.7382583E-003	9.6452615E-004	1.8504332E-003	1.4057019E-003	1.000000000000000E+000	14	1.1966012E-001	1.5263930E-006	1.448189989911720E-005	0.0000000E+000	-1.0004594E+002	6.2535860E-006	1.1118004E-005	1.2756072E-005	6.0643387E+001	2.016125899848847E-007
1.1217948E+003	4.4435398E+004	7.3031656E+004	8.5487586E+004	-5.8681988E+001	3.844342678596149E+001	1.7468175E-003	9.7507174E-004	1.9426545E-003	1.4177895E-003	1.000000000000000E+000	14	1.1914143E-001	1.3936693E-006	1.468627724786509E-005	0.0000000E+000	-1.0009406E+002	6.0802713E-006	9.9932113E-006	1.1697605E-005	5.8681988E+001	2.043773487478874E-007
1.0003201E+003	5.1240594E+004	7.7413508E+004	9.2835609E+004	-5.6499119E+001	3.920269274205202E+001	1.7460156E-003	9.7232312E-004	2.0552489E-003	1.4291201E-003	1.000000000000000E+000	14	1.1872640E-001	1.2788886E-006	1.489027068882213E-005	0.0000000E+000	-1.0010207E+002	5.9454537E-006	8.9823006E-006	1.0771729E-005	5.6499119E+001	2.039934409570439E-007
8.9142657E+002	5.8775605E+004	8.1365383E+004	1.0037379E+005	-5.4156925E+001	3.996144387134700E+001	1.7534374E-003	9.7077846E-004	2.1942942E-003	1.4418948E-003	1.000000000000000E+000	14	1.1838920E-001	1.1794832E-006	1.509365924349080E-005	0.0000000E+000	-1.0010207E+002	5.8338665E-006	8.0760510E-006	9.9627605E-006	5.4156925E+001	2.033885546686624E-007
7.9423773E+002	6.6917102E+004	8.4873789E+004	1.0808080E+005	-5.1746666E+001	4.072096505414811E+001	1.7496147E-003	9.6976850E-004	2.3610003E-003	1.4559489E-003	1.000000000000000E+000	14	1.1812112E-001	1.0928965E-006	1.529842469195258E-005	0.0000000E+000	-1.0008604E+002	5.7284892E-006	7.2656844E-006	9.2523378E-006	5.1746666E+001	2.047654484617847E-007
7.0750946E+002	7.5661906E+004	8.7595992E+004	1.1574879E+005	-4.9180862E+001	4.148244943693862E+001	1.7415588E-003	9.7307493E-004	2.5680510E-003	1.4707511E-003	1.000000000000000E+000	14	1.1789495E-001	1.0185415E-006	1.550257598294563E-005	0.0000000E+000	-1.0006999E+002	5.6473455E-006	6.5380968E-006	8.6393993E-006	4.9180862E+001	2.041512909930460E-007
6.3100964E+002	8.4540320E+004	8.9527547E+004	1.2313508E+005	-4.6641136E+001	4.224041640627547E+001	1.7399365E-003	9.7137678E-004	2.8172634E-003	1.4892831E-003	1.000000000000000E+000	14	1.1772334E-001	9.5605037E-007	1.570585121963278E-005	0.0000000E+000	-1.0009406E+002	5.5757118E-006	5.9046361E-006	8.1211629E-006	4.6641136E+001	2.032752366871519E-007
5.6233929E+002	9.3721086E+004	9.0767125E+004	1.3046959E+005	-4.4082676E+001	4.299690668223775E+001	1.7454562E-003	9.7347592E-004	3.1181222E-003	1.5091476E-003	1.000000000000000E+000	14	1.1758363E-001	9.0123399E-007	1.590931982373518E-005	0.0000000E+000	-1.0006999E+002	5.5057790E-006	5.3322442E-006	7.6646220E-006	4.4082676E+001	2.034686041024053E-007
5.0144415E+002	1.0272934E+005	9.1075969E+004	1.3728856E+005	-4.1558990E+001	4.375419415821671E+001	1.7504911E-003	9.6992834E-004	3.4849276E-003	1.5336726E-003	1.000000000000000E+000	14	1.1747316E-001	8.5566597E-007	1.611210710804173E-005	0.0000000E+000	-1.0006999E+002	5.4503676E-006	4.8320908E-006	7.2839280E-006	4.1558990E+001	2.027872843065463E-007
4.4685895E+002	1.1183059E+005	9.0738148E+004	1.4401213E+005	-3.9055508E+001	4.451091947415262E+001	1.7404399E-003	9.6866582E-004	3.9251819E-003	1.5582655E-003	1.000000000000000E+000	14	1.1738700E-001	8.1511894E-007	1.631601883033126E-005	0.0000000E+000	-1.0006197E+002	5.3921563E-006	4.3751384E-006	6.9438597E-006	3.9055508E+001	2.039117222895275E-007
3.9808920E+002	1.2051350E+005	8.9555117E+004	1.5014534E+005	-3.6616512E+001	4.527371177707391E+001	1.7461835E-003	9.7330473E-004	4.4642584E-003	1.5882044E-003	1.000000000000000E+000	14	1.1730819E-001	7.8129756E-007	1.652106518870723E-005	0.0000000E+000	-1.0006197E+002	5.3457911E-006	3.9725255E-006	6.6602133E-006	3.6616512E+001	2.050463583759687E-007
3.5465955E+002	1.2840467E+005	8.7936508E+004	1.5562966E+005	-3.4404858E+001	4.603396834651357E+001	1.7499690E-003	9.8081410E-004	5.1031611E-003	1.6292697E-003	1.000000000000000E+000	14	1.1725998E-001	7.5345525E-007	1.672701411407656E-005	0.0000000E+000	-1.0005396E+002	5.3014678E-006	3.6306508E-006	6.4255105E-006	3.4404858E+001	2.059489253693347E-007
3.1631586E+002	1.3571784E+005	8.5848945E+004	1.6059070E+005	-3.2315590E+001	4.679090616913163E+001	1.7455681E-003	9.8131911E-004	5.8608986E-003	1.6749172E-003	1.000000000000000E+000	14	1.1720610E-001	7.2984363E-007	1.693216255358816E-005	0.0000000E+000	-1.0005396E+002	5.2625487E-006	3.3288497E-006	6.2270105E-006	3.2315590E+001	2.051484395116037E-007
2.8189429E+002	1.4285284E+005	8.3697656E+004	1.6556641E+005	-3.0366089E+001	4.754640687166830E+001	1.7468361E-003	9.8038174E-004	6.7455992E-003	1.7238628E-003	1.000000000000000E+000	14	1.1717024E-001	7.0769329E-007	1.713696371964721E-005	0.0000000E+000	-1.0005396E+002	5.2112805E-006	3.0532956E-006	6.0398725E-006	3.0366089E+001	2.048011660590419E-007
2.5104436E+002	1.4889317E+005	8.1388844E+004	1.6968595E+005	-2.8662151E+001	4.830190997422324E+001	1.7560108E-003	9.7950757E-004	7.7894139E-003	1.7920196E-003	1.000000000000000E+000	14	1.1714128E-001	6.9034166E-007	1.734079133227210E-005	0.0000000E+000	-1.0006999E+002	5.1711008E-006	2.8266568E-006	5.8932396E-006	2.8662151E+001	2.038276126248904E-007
2.2392513E+002	1.5428375E+005	7.9192320E+004	1.7342116E+005	-2.7170980E+001	4.906469963713607E+001	1.7460529E-003	9.8263298E-004	8.9749964E-003	1.8715276E-003	1.000000000000000E+000	14	1.1711681E-001	6.7533171E-007	1.754830365914338E-005	0.0000000E+000	-1.0008604E+002	5.1299839E-006	2.6331700E-006	5.7663092E-006	2.7170980E+001	2.075123268712854E-007
1.9955299E+002	1.5938969E+005	7.7169211E+004	1.7708800E+005	-2.5834146E+001	4.982620681994013E+001	1.7392279E-003	9.8565815E-004	1.0335174E-002	1.9625814E-003	1.000000000000000E+000	14	1.1709819E-001	6.6124295E-007	1.775671384195044E-005	0.0000000E+000	-1.0003791E+002	5.0825533E-006	2.4607402E-006	5.6469098E-006	2.5834146E+001	2.084101828070541E-007
1.7778128E+002	1.6395727E+005	7.5369102E+004	1.8045078E+005	-2.4687651E+001	5.059423970975331E+001	1.7487196E-003	9.8030979E-004	1.1877931E-002	2.0720961E-003	1.000000000000000E+000	14	1.1708076E-001	6.4882374E-007	1.796583617496430E-005	0.0000000E+000	-1.0006197E+002	5.0351582E-006	2.3145992E-006	5.5416772E-006	2.4687651E+001	2.091223330138641E-007
1.5842838E+002	1.6789453E+005	7.3995883E+004	1.8347742E+005	-2.3784449E+001	5.136073086618853E+001	1.7484771E-003	9.7395672E-004	1.3576243E-002	2.2081546E-003	1.000000000000000E+000	14	1.1706813E-001	6.3805197E-007	1.817287023869954E-005	0.0000000E+000	-1.0005396E+002	4.9873665E-006	2.1980741E-006	5.4502621E-006	2.3784449E+001	2.070340637352376E-007
1.4131134E+002	1.7207169E+005	7.3023305E+004	1.8692530E+005	-2.2995262E+001	5.211389175528893E+001	1.7453257E-003	9.7033667E-004	1.5423454E-002	2.3537939E-003	1.000000000000000E+000	14	1.1706436E-001	6.2626276E-007	1.837509475961758E-005	0.0000000E+000	-1.0006999E+002	4.9246260E-006	2.0898990E-006	5.3497306E-006	2.2995262E+001	2.022245209180443E-007
1.2584569E+002	1.7535650E+005	7.2434000E+004	1.8972767E+005	-2.2443909E+001	5.286940229780157E+001	1.7489806E-003	9.7373943E-004	1.7459802E-002	2.5448541E-003	1.000000000000000E+000	14	1.1704848E-001	6.1692890E-007	1.857858499604754E-005	0.0000000E+000	-1.0012614E+002	4.8714755E-006	2.0122461E-006	5.2707123E-006	2.2443909E+001	2.034902364299569E-007
1.1218996E+002	1.7915503E+005	7.2329656E+004	1.9320483E+005	-2.1985241E+001	5.361484390658734E+001	1.7384633E-003	9.6138602E-004	1.9613259E-002	2.7488219E-003	1.000000000000000E+000	14	1.1704588E-001	6.0581237E-007	1.877746827475266E-005	0.0000000E+000	-1.0006999E+002	4.7994677E-006	1.9376730E-006	5.1758543E-006	2.1985241E+001	1.988832787051249E-007
1.0003201E+002	1.8264258E+005	7.2978555E+004	1.9668294E+005	-2.1780184E+001	5.437469151601545E+001	1.7447663E-003	9.6728466E-004	2.1801474E-002	3.0015323E-003	1.000000000000000E+000	14	1.1704069E-001	5.9507295E-007	1.898003821723256E-005	0.0000000E+000	-1.0006999E+002	4.7213766E-006	1.8865220E-006	5.0843250E-006	2.1780184E+001	2.025699424798916E-007
8.9115974E+001	1.8574966E+005	7.3793883E+004	1.9987114E+005	-2.1666737E+001	5.514175168577640E+001	1.7410554E-003	9.5751567E-004	2.4201607E-002	3.2990184E-003	1.000000000000000E+000	14	1.1703702E-001	5.8556236E-007	1.918421227889707E-005	0.0000000E+000	-1.0007802E+002	4.6497312E-006	1.8472266E-006	5.0032236E-006	2.1666737E+001	2.041740616645163E-007
7.9415527E+001	1.8929725E+005	7.5054461E+004	2.0363355E+005	-2.1627831E+001	5.590523326865514E+001	1.7427523E-003	9.6258690E-004	2.6701655E-002	3.6273759E-003	1.000000000000000E+000	14	1.1702953E-001	5.7470652E-007	1.938738934295765E-005	0.0000000E+000	-1.0006197E+002	4.5650509E-006	1.8099971E-006	4.9107821E-006	2.1627831E+001	2.031770640605822E-007
7.0838745E+001	1.9258227E+005	7.7433781E+004	2.0756666E+005	-2.1904152E+001	5.665640013103257E+001	1.7350508E-003	9.5910067E-004	2.9014749E-002	4.0379837E-003	1.000000000000000E+000	14	1.1703101E-001	5.6382373E-007	1.958664524905776E-005	0.0000000E+000	-1.0004594E+002	4.4699336E-006	1.7972782E-006	4.8177294E-006	2.1904152E+001	1.992559061001090E-007
6.3082302E+001	1.9720797E+005	8.0300555E+004	2.1292995E+005	-2.2155521E+001	5.743686275478103E+001	1.7500436E-003	9.6112507E-004	3.1419121E-002	4.4684573E-003	1.000000000000000E+000	14	1.1705435E-001	5.4973174E-007	1.979414250228062E-005	0.0000000E+000	-1.0008604E+002	4.3496166E-006	1.7711079E-006	4.6963801E-006	2.2155521E+001	2.074972532228537E-007
5.6241817E+001	1.9978948E+005	8.2731594E+004	2.1624142E+005	-2.2494146E+001	5.818133588341880E+001	1.7453256E-003	9.6332241E-004	3.4204986E-002	5.0067329E-003	1.000000000000000E+000	14	1.1702230E-001	5.4116504E-007	1.999157813272824E-005	0.0000000E+000	-1.0004594E+002	4.2726256E-006	1.7692680E-006	4.6244609E-006	2.2494146E+001	1.974356304476204E-007
5.0144413E+001	2.0330847E+005	8.6359375E+004	2.2088973E+005	-2.3014338E+001	5.893818893274874E+001	1.7459037E-003	9.6983364E-004	3.6752600E-002	5.6176670E-003	1.000000000000000E+000	14	1.1702142E-001	5.2977299E-007	2.019360102702715E-005	0.0000000E+000	-1.0005396E+002	4.1668168E-006	1.7699396E-006	4.5271458E-006	2.3014338E+001	2.020228942989096E-007
4.4671219E+001	2.0777672E+005	8.9477617E+004	2.2622425E+005	-2.3298794E+001	5.970220440902631E+001	1.7480855E-003	9.6965593E-004	3.9817858E-002	6.2291445E-003	1.000000000000000E+000	14	1.1701623E-001	5.1725766E-007	2.039849112836545E-005	0.0000000E+000	-1.0006999E+002	4.0599302E-006	1.7483809E-006	4.4203925E-006	2.3298794E+001	2.048901013383015E-007
3.9808922E+001	2.1222756E+005	9.3786945E+004	2.3202700E+005	-2.3841444E+001	6.046472087193979E+001	1.7472464E-003	9.6706103E-004	4.2628232E-002	6.9647422E-003	1.000000000000000E+000	14	1.1701740E-001	5.0432664E-007	2.060262462957214E-005	0.0000000E+000	-1.0005396E+002	3.9420738E-006	1.7420690E-006	4.3098435E-006	2.3841444E+001	2.041335012066953E-007
3.5465305E+001	2.1701036E+005	9.9178414E+004	2.3859978E+005	-2.4561422E+001	6.121512957420782E+001	1.7479364E-003	9.7429752E-004	4.5247991E-002	7.8179613E-003	1.000000000000000E+000	14	1.1701410E-001	4.9042001E-007	2.080451710467681E-005	0.0000000E+000	-1.0007802E+002	3.8118901E-006	1.7421160E-006	4.1911185E-006	2.4561422E+001	2.018924751046666E-007
3.1629551E+001	2.2146114E+005	1.0397888E+005	2.4465617E+005	-2.5150663E+001	6.193946520859026E+001	1.7477125E-003	9.6361473E-004	4.8392940E-002	8.7409746E-003	1.000000000000000E+000	14	1.1701123E-001	4.7826802E-007	2.099841767382693E-005	0.0000000E+000	-1.0006197E+002	3.6998590E-006	1.7371317E-006	4.0873688E-006	2.5150663E+001	1.939005691501228E-007
2.8170074E+001	2.2679433E+005	1.1060480E+005	2.5232734E+005	-2.5997919E+001	6.274374703351350E+001	1.7449713E-003	9.6553977E-004	5.1080856E-002	9.8147094E-003	1.000000000000000E+000	14	1.1701173E-001	4.6372989E-007	2.121280375587741E-005	0.0000000E+000	-1.0008604E+002	3.5620790E-006	1.7371819E-006	3.9631059E-006	2.5997919E+001	2.143860820504731E-007
2.5104435E+001	2.3208552E+005	1.1624780E+005	2.5957127E+005	-2.6605534E+001	6.349992304274929E+001	1.7393584E-003	9.7862224E-004	5.4536209E-002	1.0938084E-002	1.000000000000000E+000	14	1.1700815E-001	4.5077465E-007	2.141706186192071E-005	0.0000000E+000	-1.0006999E+002	3.4445682E-006	1.7253274E-006	3.8525063E-006	2.6605534E+001	2.042581060432997E-007
2.2385387E+001	2.3796177E+005	1.2302758E+005	2.6788353E+005	-2.7339220E+001	6.418643246198189E+001	1.7355169E-003	9.7743876E-004	5.7790045E-002	1.2188941E-002	1.000000000000000E+000	14	1.1700884E-001	4.3678997E-007	2.160359320513468E-005	0.0000000E+000	-1.0004594E+002	3.3160047E-006	1.7143932E-006	3.7329655E-006	2.7339220E+001	1.865313432139763E-007
1.9955299E+001	2.4419306E+005	1.3093380E+005	2.7708106E+005	-2.8199751E+001	6.494822097817087E+001	1.7338014E-003	9.7645726E-004	6.0913015E-002	1.3601913E-002	1.000000000000000E+000	14	1.1701056E-001	4.2229723E-007	2.180945862760089E-005	0.0000000E+000	-1.0004594E+002	3.1806776E-006	1.7054465E-006	3.6090521E-006	2.8199751E+001	2.058654224662054E-007
1.7796129E+001	2.5092656E+005	1.3937684E+005	2.8703666E+005	-2.9049929E+001	6.579252907159389E+001	1.7462301E-003	9.7428070E-004	6.4165853E-002	1.5129009E-002	1.000000000000000E+000	14	1.1700699E-001	4.0763780E-007	2.203726607155078E-005	0.0000000E+000	-1.0008604E+002	3.0455933E-006	1.6916711E-006	3.4838756E-006	2.9049929E+001	2.278074439498905E-007
1.5857576E+001	2.5773230E+005	1.4740130E+005	2.9690584E+005	-2.9765940E+001	6.651493875929737E+001	1.7374377E-003	9.7053271E-004	6.8089791E-002	1.6782131E-002	1.000000000000000E+000	14	1.1700147E-001	3.9406927E-007	2.222960734191368E-005	0.0000000E+000	-1.0011009E+002	2.9236901E-006	1.6721059E-006	3.3680710E-006	2.9765940E+001	1.923412703629052E-007
1.4118974E+001	2.6547459E+005	1.5775683E+005	3.0881059E+005	-3.0720667E+001	6.731725733072381E+001	1.7432185E-003	9.8112808E-004	7.1454376E-002	1.8647507E-002	1.000000000000000E+000	14	1.1700445E-001	3.7888745E-007	2.244788998087840E-005	0.0000000E+000	-1.0006197E+002	2.7838037E-006	1.6542601E-006	3.2382309E-006	3.0720667E+001	2.182826389647129E-007
1.2600808E+001	2.7251438E+005	1.6709592E+005	3.1966409E+005	-3.1515114E+001	6.820786219969159E+001	1.7452418E-003	9.6981111E-004	7.5588524E-002	2.0653795E-002	1.000000000000000E+000	14	1.1700342E-001	3.6601989E-007	2.268796975487271E-005	0.0000000E+000	-1.0003791E+002	2.6668692E-006	1.6352274E-006	3.1282839E-006	3.1515114E+001	2.400797739943166E-007
1.1224856E+001	2.8128866E+005	1.7885813E+005	3.3333697E+005	-3.2450348E+001	6.889190577887348E+001	1.7338759E-003	9.6638070E-004	7.9273976E-002	2.2823436E-002	1.000000000000000E+000	14	1.1700969E-001	3.5102525E-007	2.287021331688154E-005	0.0000000E+000	-1.0003791E+002	2.5315428E-006	1.6096881E-006	2.9999674E-006	3.2450348E+001	1.822435620088311E-007
1.0003201E+001	2.8869606E+005	1.9240783E+005	3.4693831E+005	-3.3682343E+001	6.965266669501580E+001	1.7443746E-003	9.6558721E-004	8.2691036E-002	2.5433104E-002	1.000000000000000E+000	14	1.1700684E-001	3.3725544E-007	2.307239030535882E-005	0.0000000E+000	-1.0010207E+002	2.3984812E-006	1.5985205E-006	2.8823567E-006	3.3682343E+001	2.021769884772754E-007
8.9183798E+000	2.9887038E+005	2.0264377E+005	3.6109278E+005	-3.4138538E+001	7.049702385510318E+001	1.7457079E-003	9.6406456E-004	8.8064507E-002	2.7735105E-002	1.000000000000000E+000	14	1.1699891E-001	3.2401343E-007	2.330075495876766E-005	0.0000000E+000	-1.0009406E+002	2.2921618E-006	1.5541597E-006	2.7693713E-006	3.4138538E+001	2.283646534088397E-007
7.9395342E+000	3.0919025E+005	2.1940511E+005	3.7912691E+005	-3.5359966E+001	7.143469341965829E+001	1.7468827E-003	9.6377340E-004	9.1364689E-002	3.0598678E-002	1.000000000000000E+000	14	1.1700130E-001	3.0860721E-007	2.354877275457622E-005	0.0000000E+000	-1.0004594E+002	2.1510800E-006	1.5264321E-006	2.6376392E-006	3.5359966E+001	2.480177958085635E-007
7.0765405E+000	3.1962341E+005	2.3369491E+005	3.9594497E+005	-3.6172668E+001	7.199302488614921E+001	1.7327571E-003	9.6644566E-004	9.6238732E-002	3.3525769E-002	1.000000000000000E+000	14	1.1700583E-001	2.9551035E-007	2.369869815212456E-005	0.0000000E+000	-1.0004594E+002	2.0387731E-006	1.4906634E-006	2.5256036E-006	3.6172668E+001	1.499253975483358E-007
6.3105822E+000	3.2964947E+005	2.4806130E+005	4.1255688E+005	-3.6961472E+001	7.261320022222935E+001	1.7263982E-003	9.6640788E-004	1.0166974E-001	3.6757167E-002	1.000000000000000E+000	14	1.1699480E-001	2.8358465E-007	2.386507764668381E-005	0.0000000E+000	-1.0009406E+002	1.9367997E-006	1.4574423E-006	2.4239082E-006	3.6961472E+001	1.663794945592494E-007
5.6205034E+000	3.4528491E+005	2.6621822E+005	4.3599750E+005	-3.7632595E+001	7.329964764157194E+001	1.7336336E-003	9.6855592E-004	1.0636707E-001	3.9656531E-002	1.000000000000000E+000	14	1.1700489E-001	2.6836139E-007	2.405069014873748E-005	0.0000000E+000	-1.0003791E+002	1.8163920E-006	1.4004570E-006	2.2935910E-006	3.7632595E+001	1.856125020536733E-007
5.0144415E+000	3.5543116E+005	2.8859797E+005	4.5784288E+005	-3.9075420E+001	7.405716223749914E+001	1.7439271E-003	9.7046356E-004	1.0997762E-001	4.3697633E-002	1.000000000000000E+000	14	1.1700527E-001	2.5555769E-007	2.425407325689240E-005	0.0000000E+000	-1.0006197E+002	1.6955968E-006	1.3767667E-006	2.1841554E-006	3.9075420E+001	2.033831081549187E-007
4.4693937E+000	3.6952875E+005	3.1037497E+005	4.8258069E+005	-4.0027607E+001	7.489853931745165E+001	1.7489434E-003	9.6563733E-004	1.1473207E-001	4.7458973E-002	1.000000000000000E+000	14	1.1699504E-001	2.4243622E-007	2.447589255457787E-005	0.0000000E+000	-1.0007802E+002	1.5867494E-006	1.3327442E-006	2.0721923E-006	4.0027607E+001	2.218192976854675E-007
3.9778514E+000	3.8589028E+005	3.3250113E+005	5.0938031E+005	-4.0749729E+001	7.583519368196721E+001	1.7417080E-003	9.6246356E-004	1.2033127E-001	5.1272012E-002	1.000000000000000E+000	14	1.1700270E-001	2.2969617E-007	2.472469537191793E-005	0.0000000E+000	-1.0007802E+002	1.4872347E-006	1.2814712E-006	1.9631698E-006	4.0749729E+001	2.488028173400672E-007
3.5511365E+000	4.0062369E+005	3.5932253E+005	5.3815613E+005	-4.1889183E+001	7.687642946475535E+001	1.7397220E-003	9.6635608E-004	1.2472925E-001	5.5605870E-002	1.000000000000000E+000	14	1.1700498E-001	2.1741828E-007	2.500739403843520E-005	0.0000000E+000	-1.0006197E+002	1.3833117E-006	1.2407032E-006	1.8581968E-006	4.1889183E+001	2.826986665172643E-007
3.1603966E+000	4.1775138E+005	3.8487781E+005	5.6802038E+005	-4.2654629E+001	7.803920797331375E+001	1.7453349E-003	9.6634892E-004	1.3084456E-001	6.0072210E-002	1.000000000000000E+000	14	1.1700288E-001	2.0598360E-007	2.531611217903729E-005	0.0000000E+000	-1.0005396E+002	1.2947623E-006	1.1928754E-006	1.7605003E-006	4.2654629E+001	3.087181406020942E-007
2.8183618E+000	4.2596666E+005	4.1380375E+005	5.9386963E+005	-4.4170208E+001	7.933469408821838E+001	1.7443369E-003	9.4766734E-004	1.3646741E-001	6.6257581E-002	1.000000000000000E+000	14	1.1700123E-001	1.9701501E-007	2.565545895329140E-005	0.0000000E+000	-1.0006197E+002	1.2077954E-006	1.1733084E-006	1.6838712E-006	4.4170208E+001	3.393467742541056E-007
2.5136740E+000	4.5358944E+005	4.4094178E+005	6.3259231E+005	-4.4189957E+001	8.077873514346720E+001	1.7407824E-003	9.4754150E-004	1.4359190E-001	6.9766127E-002	1.000000000000000E+000	14	1.1700007E-001	1.8495335E-007	2.604023662828028E-005	0.0000000E+000	-1.0004594E+002	1.1334832E-006	1.1018778E-006	1.5807969E-006	4.4189957E+001	3.847776749888807E-007
2.2398219E+000	4.7543125E+005	4.7895216E+005	6.7485556E+005	-4.5211376E+001	8.239337223346229E+001	1.7517358E-003	9.5214264E-004	1.4835921E-001	7.4726924E-002	1.000000000000000E+000	14	1.1700377E-001	1.7337601E-007	2.646194224543716E-005	0.0000000E+000	-1.0006999E+002	1.0439172E-006	1.0516482E-006	1.4817986E-006	4.5211376E+001	4.217056171568790E-007