EC-Lab ASCII FILE
Nb header lines : 75                          

Potentio Electrochemical Impedance Spectroscopy

Run on channel : 1 (SN 20909)
User : 
CE vs. WE compliance from -10 V to 10 V
Electrode connection : standard
Ewe ctrl range : min = -10.00 V, max = 10.00 V
Safety Limits :
	Do not start on E overload
Acquisition started on : 01/24/2020 09:54:50
Technique started on : 01/24/2020 09:54:51
Saved on :
	File : DE_40_9_60.mpr
	Directory : P:\Chemistry\Data\VMP3\Kyler\DOE\DE_40\2ND 60C\
	Host : 10.0.4.99
Device : VMP3 (SN 0183)
Address : USB
EC-Lab for windows v11.33 (software)
Internet server v11.32 (firmware)
Command interpretor v11.33 (firmware)
Electrode material : 
Initial state : 
Electrolyte : 
Comments : 
Electrode surface area : 0.001 cm²
Characteristic mass : 0.001 g
Equivalent Weight : 0.000 g/eq.
Density : 0.000 g/cm3
Record Analogic IN 1
Cycle Definition : Charge/Discharge alternance
External device configuration :
   device type : Thermostat
   device name : Other
   Analog OUT : 
      mode : E/V
      unit : T/°C
      max : 400.000 at 5.000 V
      min : -100.000 at 0.000 V
      current : 0.000
   Analog IN 1 : 
      unit : T/°C
      max : 400.000 at 5.000 V
      min : -100.000 at 0.000 V
Mode                Single sine         
E (V)               0.0000              
vs.                 Eoc                 
tE (h:m:s)          0:00:0.0000         
record              0                   
dI                  1.000               
unit dI             mA                  
dt (s)              0.000               
fi                  1.000               
unit fi             MHz                 
ff                  1.000               
unit ff             Hz                  
Nd                  20                  
Points              per decade          
spacing             Logarithmic         
Va (mV)             128.0               
pw                  0.50                
Na                  3                   
corr                0                   
E range min (V)     -10.000             
E range max (V)     10.000              
I Range             Auto                
Bandwidth           5                   
nc cycles           0                   
goto Ns'            0                   
nr cycles           0                   
inc. cycle          1                   

freq/Hz	Re(Z)/Ohm	-Im(Z)/Ohm	|Z|/Ohm	Phase(Z)/deg	time/s	<Ewe>/V	<I>/mA	Cs/µF	Cp/µF	cycle number	I Range	|Ewe|/V	|I|/A	(Q-Qo)/mA.h	Analog OUT/V	Analog IN 1/V	Re(Y)/Ohm-1	Im(Y)/Ohm-1	|Y|/Ohm-1	Phase(Y)/deg	dq/mA.h	
1.0000186E+006	6.1501774E+001	7.1066010E+001	9.3983223E+001	-4.9126511E+001	1.952485506044468E+000	3.6332376E-002	3.0815918E-003	2.2394953E-003	1.2804816E-003	1.000000000000000E+000	11	2.2272361E-003	2.3698231E-005	8.064762714234222E-007	0.0000000E+000	-1.0006999E+002	6.9628488E-003	8.0456519E-003	1.0640197E-002	4.9126511E+001	8.064762714234222E-007
8.9124669E+005	6.9844292E+001	6.8454613E+001	9.7797028E+001	-4.4424290E+001	2.548494974354981E+000	3.6851101E-002	3.1284373E-003	2.6086720E-003	1.2781258E-003	1.000000000000000E+000	11	3.5367787E-003	3.6164482E-005	1.285567964437076E-006	0.0000000E+000	-1.0008604E+002	7.3026349E-003	7.1573360E-003	1.0225260E-002	4.4424290E+001	4.790916930136543E-007
7.9433269E+005	7.7924400E+001	6.6218971E+001	1.0226028E+002	-4.0357380E+001	3.144487882644171E+000	3.7292678E-002	3.1090272E-003	3.0257655E-003	1.2687796E-003	1.000000000000000E+000	11	5.4244697E-003	5.3045718E-005	1.891764042090977E-006	0.0000000E+000	-1.0004594E+002	7.4517713E-003	6.3324026E-003	9.7789681E-003	4.0357380E+001	6.061960776539006E-007
7.0794981E+005	8.5496017E+001	6.4284813E+001	1.0696778E+002	-3.6939659E+001	3.739497030939674E+000	3.7719112E-002	3.1431818E-003	3.4971100E-003	1.2630486E-003	1.000000000000000E+000	11	7.9800626E-003	7.4602489E-005	2.361996687508913E-006	0.0000000E+000	-1.0011009E+002	7.4720527E-003	5.6182677E-003	9.3486095E-003	3.6939659E+001	4.702326454179355E-007
6.3095681E+005	9.2851799E+001	6.2459873E+001	1.1190484E+002	-3.3928070E+001	4.335494205908617E+000	3.8106795E-002	3.1051100E-003	4.0384936E-003	1.2581252E-003	1.000000000000000E+000	11	1.1283203E-002	1.0082855E-004	2.896311253931951E-006	0.0000000E+000	-1.0010207E+002	7.4146832E-003	4.9877348E-003	8.9361640E-003	3.3928070E+001	5.343145664230381E-007
5.6234225E+005	9.9660240E+001	6.0553169E+001	1.1661411E+002	-3.1282700E+001	4.931475087563740E+000	3.8444601E-002	3.0638645E-003	4.6739336E-003	1.2602425E-003	1.000000000000000E+000	11	1.5341143E-002	1.3155479E-004	3.239402595087692E-006	0.0000000E+000	-1.0011009E+002	7.3285792E-003	4.4528157E-003	8.5752923E-003	3.1282700E+001	3.430913411557410E-007
5.0120619E+005	1.0612463E+002	5.8367195E+001	1.2111633E+002	-2.8810232E+001	5.528488635871327E+000	3.8740873E-002	3.1795786E-003	5.4404512E-003	1.2634763E-003	1.000000000000000E+000	11	2.0172225E-002	1.6655248E-004	3.516673668023739E-006	0.0000000E+000	-1.0008604E+002	7.2345375E-003	3.9789034E-003	8.2565248E-003	2.8810232E+001	2.772710729360472E-007
4.4668572E+005	1.1202478E+002	5.5897507E+001	1.2519617E+002	-2.6518026E+001	6.124486797518330E+000	3.8995210E-002	3.1991759E-003	6.3741989E-003	1.2706571E-003	1.000000000000000E+000	11	2.5759807E-002	2.0575554E-004	3.807016524985859E-006	0.0000000E+000	-1.0007802E+002	7.1471352E-003	3.5662381E-003	7.9874648E-003	2.6518026E+001	2.903428569621206E-007
3.9810347E+005	1.1737638E+002	5.2991360E+001	1.2878392E+002	-2.4297523E+001	6.719492692471249E+000	3.9150789E-002	3.1784601E-003	7.5443028E-003	1.2773384E-003	1.000000000000000E+000	11	3.2123428E-002	2.4943665E-004	4.644708089763097E-006	0.0000000E+000	-1.0005396E+002	7.0771337E-003	3.1950802E-003	7.7649443E-003	2.4297523E+001	8.376915647772374E-007
3.5480997E+005	1.2211438E+002	4.9831055E+001	1.3189032E+002	-2.2198833E+001	7.315475840790896E+000	3.9246209E-002	3.0750674E-003	9.0016937E-003	1.2849865E-003	1.000000000000000E+000	11	3.9305415E-002	2.9801592E-004	5.815124850254506E-006	0.0000000E+000	-1.0008604E+002	7.0200628E-003	2.8646677E-003	7.5820577E-003	2.2198833E+001	1.170416760491409E-006
3.1622997E+005	1.2625842E+002	4.6579643E+001	1.3457657E+002	-2.0250181E+001	7.911496162385447E+000	3.9321974E-002	3.0983989E-003	1.0804905E-002	1.2944174E-003	1.000000000000000E+000	11	4.7385033E-002	3.5210463E-004	6.013493830638860E-006	0.0000000E+000	-1.0006197E+002	6.9714235E-003	2.5719190E-003	7.4307141E-003	2.0250181E+001	1.983689803843541E-007
2.8183453E+005	1.2978308E+002	4.3252853E+001	1.3680080E+002	-1.8431702E+001	8.507491390715586E+000	3.9365068E-002	3.1586825E-003	1.3056030E-002	1.3051591E-003	1.000000000000000E+000	11	5.6414437E-002	4.1238384E-004	6.269611274441963E-006	0.0000000E+000	-1.0011812E+002	6.9349096E-003	2.3111999E-003	7.3098987E-003	1.8431702E+001	2.561174438031031E-007
2.5118764E+005	1.3275266E+002	3.9962639E+001	1.3863722E+002	-1.6753414E+001	9.102491072291741E+000	3.9413925E-002	3.2148592E-003	1.5855053E-002	1.3173959E-003	1.000000000000000E+000	11	6.6453971E-002	4.7933715E-004	6.930903162301143E-006	0.0000000E+000	-1.0006197E+002	6.9069052E-003	2.0791914E-003	7.2130701E-003	1.6753414E+001	6.612918878591801E-007
2.2387173E+005	1.3518242E+002	3.6809788E+001	1.4010442E+002	-1.5232178E+001	9.698488007270498E+000	3.9424945E-002	3.0157247E-003	1.9313347E-002	1.3331546E-003	1.000000000000000E+000	11	7.7486888E-002	5.5306527E-004	8.241139638976569E-006	0.0000000E+000	-1.0007802E+002	6.8867858E-003	1.8752521E-003	7.1375337E-003	1.5232178E+001	1.310236476675426E-006
1.9954350E+005	1.3715817E+002	3.3858505E+001	1.4127548E+002	-1.3866651E+001	1.029547675562208E+001	3.9475892E-002	3.1598066E-003	2.3556717E-002	1.3530591E-003	1.000000000000000E+000	11	8.9538209E-002	6.3378451E-004	8.517467628960731E-006	0.0000000E+000	-1.0009406E+002	6.8720784E-003	1.6964232E-003	7.0783691E-003	1.3866651E+001	2.763279899841617E-007
1.7783180E+005	1.3878191E+002	3.1181620E+001	1.4224173E+002	-1.2662971E+001	1.089147862393293E+001	3.9492413E-002	3.1034485E-003	2.8701993E-002	1.3792892E-003	1.000000000000000E+000	11	1.0257412E-001	7.2112534E-004	1.007394162831932E-005	0.0000000E+000	-1.0006999E+002	6.8592844E-003	1.5411490E-003	7.0302859E-003	1.2662971E+001	1.556473999358584E-006
1.5848613E+005	1.4012398E+002	2.8765863E+001	1.4304616E+002	-1.1600998E+001	1.135149677915615E+001	3.9547853E-002	3.1678393E-003	3.4910131E-002	1.4117374E-003	1.000000000000000E+000	11	1.1654777E-001	8.1475638E-004	9.978231684479397E-006	0.0000000E+000	-1.0007802E+002	6.8479413E-003	1.4058048E-003	6.9907503E-003	1.1600998E+001	-9.570994383991867E-008
1.4125594E+005	1.4125027E+002	2.6620808E+001	1.4373694E+002	-1.0673087E+001	1.181149181429646E+001	3.9553262E-002	3.1495525E-003	4.2324532E-002	1.4517701E-003	1.000000000000000E+000	11	1.3152857E-001	9.1506453E-004	1.026165691165241E-005	0.0000000E+000	-1.0006197E+002	6.8367943E-003	1.2884999E-003	6.9571538E-003	1.0673087E+001	2.834252271730097E-007
1.2590930E+005	1.4217970E+002	2.4716253E+001	1.4431203E+002	-9.8616409E+000	1.240849405599874E+001	3.9615415E-002	3.1512310E-003	5.1142234E-002	1.5001681E-003	1.000000000000000E+000	11	1.2946685E-001	8.9713139E-004	1.076052967669481E-005	0.0000000E+000	-1.0006999E+002	6.8270415E-003	1.1868002E-003	6.9294292E-003	9.8616409E+000	4.988727650424039E-007
1.1220494E+005	1.4294879E+002	2.3056215E+001	1.4479622E+002	-9.1623306E+000	1.300447475098190E+001	3.9645698E-002	2.9489223E-003	6.1520539E-002	1.5598460E-003	1.000000000000000E+000	11	1.2970144E-001	8.9575158E-004	1.146144413888558E-005	0.0000000E+000	-1.0007802E+002	6.8181418E-003	1.0996982E-003	6.9062575E-003	9.1623306E+000	7.009144621907684E-007
1.0000371E+005	1.4360316E+002	2.1618408E+001	1.4522130E+002	-8.5611734E+000	1.360047680596472E+001	3.9706249E-002	3.1004667E-003	7.3617369E-002	1.6314249E-003	1.000000000000000E+000	11	1.2961659E-001	8.9254527E-004	1.218155325139459E-005	0.0000000E+000	-1.0007802E+002	6.8093142E-003	1.0250926E-003	6.8860422E-003	8.5611734E+000	7.201091125090093E-007
8.9129305E+004	1.4413953E+002	2.0395189E+001	1.4557530E+002	-8.0536680E+000	1.419647390095633E+001	3.9753053E-002	3.1924767E-003	8.7553173E-002	1.7185096E-003	1.000000000000000E+000	11	1.2962167E-001	8.9040975E-004	1.439439706868466E-005	0.0000000E+000	-1.0004594E+002	6.8015470E-003	9.6239266E-004	6.8692970E-003	8.0536680E+000	2.212843817290074E-006
7.9433273E+004	1.4458775E+002	1.9397203E+001	1.4588307E+002	-7.6409068E+000	1.479149648916791E+001	3.9785296E-002	3.2340947E-003	1.0329482E-001	1.8261943E-003	1.000000000000000E+000	11	1.2960352E-001	8.8840682E-004	1.526568905229215E-005	0.0000000E+000	-1.0008604E+002	6.7939400E-003	9.1144256E-004	6.8548047E-003	7.6409068E+000	8.712919836074843E-007
7.0794977E+004	1.4495535E+002	1.8609987E+001	1.4614508E+002	-7.3158574E+000	1.538648979747086E+001	3.9802767E-002	3.1941561E-003	1.2080129E-001	1.9588238E-003	1.000000000000000E+000	11	1.2940770E-001	8.8547420E-004	1.484802760139185E-005	0.0000000E+000	-1.0006999E+002	6.7868121E-003	8.7131991E-004	6.8425154E-003	7.3158574E+000	-4.176614509002943E-007
6.3093828E+004	1.4525687E+002	1.8038612E+001	1.4637263E+002	-7.0789909E+000	1.598247670577257E+001	3.9819457E-002	3.1682141E-003	1.3983959E-001	2.1238145E-003	1.000000000000000E+000	11	1.2937522E-001	8.8387571E-004	1.486605572655875E-005	0.0000000E+000	-1.0006999E+002	6.7798002E-003	8.4194430E-004	6.8318783E-003	7.0789909E+000	1.802812516689422E-008
5.6237012E+004	1.4552664E+002	1.7658150E+001	1.4659404E+002	-6.9184270E+000	1.657949785413803E+001	3.9835624E-002	3.1555232E-003	1.6027017E-001	2.3254685E-003	1.000000000000000E+000	11	1.2924702E-001	8.8166626E-004	1.683560365023893E-005	0.0000000E+000	-1.0007802E+002	6.7718895E-003	8.2169857E-004	6.8215597E-003	6.9184270E+000	1.969547923680187E-006
5.0122477E+004	1.4576625E+002	1.7492800E+001	1.4681212E+002	-6.8431025E+000	1.703948616932030E+001	3.9837696E-002	3.1566434E-003	1.8152159E-001	2.5770515E-003	1.000000000000000E+000	11	1.3986175E-001	9.5265801E-004	1.759594209540066E-005	0.0000000E+000	-1.0011812E+002	6.7629032E-003	8.1158779E-004	6.8114270E-003	6.8431025E+000	7.603384451617271E-007
4.4666715E+004	1.4594945E+002	1.7531935E+001	1.4699867E+002	-6.8497396E+000	1.763449483757722E+001	3.9873555E-002	3.2391346E-003	2.0323864E-001	2.8909403E-003	1.000000000000000E+000	11	1.3027169E-001	8.8621001E-004	1.681393331625441E-005	0.0000000E+000	-1.0009406E+002	6.7542265E-003	8.1134023E-004	6.8027824E-003	6.8497396E+000	-7.820087791462539E-007
3.9814063E+004	1.4614598E+002	1.7792152E+001	1.4722502E+002	-6.9411645E+000	1.809447728606756E+001	3.9866637E-002	3.2305494E-003	2.2467522E-001	3.2813223E-003	1.000000000000000E+000	11	1.3922605E-001	9.4566843E-004	1.717316511929837E-005	0.0000000E+000	-1.0006197E+002	6.7425412E-003	8.2085270E-004	6.7923237E-003	6.9411645E+000	3.592318030439646E-007
3.5480996E+004	1.4629678E+002	1.8250410E+001	1.4743076E+002	-7.1108680E+000	1.869048155439668E+001	3.9867513E-002	3.0754583E-003	2.4578294E-001	3.7663509E-003	1.000000000000000E+000	11	1.2996049E-001	8.8150188E-004	1.911732181453327E-005	0.0000000E+000	-1.0006999E+002	6.7306748E-003	8.3964638E-004	6.7828451E-003	7.1108680E+000	1.944156695234899E-006
3.1621143E+004	1.4645590E+002	1.8940258E+001	1.4767554E+002	-7.3688188E+000	1.914947805620614E+001	3.9870683E-002	3.1549633E-003	2.6573983E-001	4.3713073E-003	1.000000000000000E+000	11	1.3708234E-001	9.2826708E-004	2.020177761849482E-005	0.0000000E+000	-1.0009406E+002	6.7156763E-003	8.6849788E-004	6.7716022E-003	7.3688188E+000	1.084455803961545E-006
2.8188096E+004	1.4661267E+002	1.9847513E+001	1.4794998E+002	-7.7094803E+000	1.974649648452760E+001	3.9890673E-002	3.1706407E-003	2.8447774E-001	5.1195365E-003	1.000000000000000E+000	11	1.2954512E-001	8.7560079E-004	1.989350987829191E-005	0.0000000E+000	-1.0007802E+002	6.6979462E-003	9.0672640E-004	6.7590410E-003	7.7094803E+000	-3.082677402029105E-007
2.5116910E+004	1.4678944E+002	2.0999872E+001	1.4828397E+002	-8.1415586E+000	2.020648954636999E+001	3.9900519E-002	3.1764265E-003	3.0174303E-001	6.0517667E-003	1.000000000000000E+000	11	1.3493092E-001	9.0994948E-004	2.119877236219407E-005	0.0000000E+000	-1.0003791E+002	6.6758478E-003	9.5505471E-004	6.7438176E-003	8.1415586E+000	1.305262483902169E-006
2.2389027E+004	1.4697899E+002	2.2400194E+001	1.4867613E+002	-8.6654291E+000	2.066648359489045E+001	3.9881665E-002	3.1465651E-003	3.1734607E-001	7.2036763E-003	1.000000000000000E+000	11	1.3970722E-001	9.3967485E-004	2.224955199444149E-005	0.0000000E+000	-1.0009406E+002	6.6492516E-003	1.0133729E-003	6.7260293E-003	8.6654291E+000	1.050779632247417E-006
1.9948783E+004	1.4715424E+002	2.4070942E+001	1.4910995E+002	-9.2899551E+000	2.126349679657142E+001	3.9910756E-002	3.2178576E-003	3.3144438E-001	8.6374097E-003	1.000000000000000E+000	11	1.2960967E-001	8.6922216E-004	2.263468834820540E-005	0.0000000E+000	-1.0007802E+002	6.6184988E-003	1.0826293E-003	6.7064604E-003	9.2899551E+000	3.851363537639060E-007
1.7786895E+004	1.4736766E+002	2.6024895E+001	1.4964799E+002	-1.0015082E+001	2.172348657847033E+001	3.9901938E-002	3.1728798E-003	3.4381992E-001	1.0398416E-002	1.000000000000000E+000	11	1.3281700E-001	8.8752940E-004	2.248855415711619E-005	0.0000000E+000	-1.0007802E+002	6.5805223E-003	1.1621098E-003	6.6823480E-003	1.0015082E+001	-1.461341910892046E-007
1.5847686E+004	1.4763391E+002	2.8294622E+001	1.5032085E+002	-1.0849402E+001	2.218349230694002E+001	3.9911915E-002	3.2475335E-003	3.5493627E-001	1.2575340E-002	1.000000000000000E+000	11	1.3554993E-001	9.0173743E-004	2.231923907266658E-005	0.0000000E+000	-1.0007802E+002	6.5335268E-003	1.2521764E-003	6.6524372E-003	1.0849402E+001	-1.693150844496113E-007
1.4121879E+004	1.4791656E+002	3.0910875E+001	1.5111185E+002	-1.1803525E+001	2.264249771545292E+001	3.9909713E-002	3.2260711E-003	3.6459973E-001	1.5256044E-002	1.000000000000000E+000	11	1.3782451E-001	9.1206952E-004	2.278408834693255E-005	0.0000000E+000	-1.0008604E+002	6.4776842E-003	1.3536747E-003	6.6176150E-003	1.1803525E+001	4.648492742659683E-007
1.2590932E+004	1.4824094E+002	3.3870285E+001	1.5206108E+002	-1.2870094E+001	2.310248933729599E+001	3.9907083E-002	3.1633626E-003	3.7320152E-001	1.8515905E-002	1.000000000000000E+000	11	1.3968179E-001	9.1859000E-004	2.377278295368241E-005	0.0000000E+000	-1.0008604E+002	6.4110924E-003	1.4648148E-003	6.5763048E-003	1.2870094E+001	9.886946067498559E-007
1.1217711E+004	1.4862212E+002	3.7251652E+001	1.5321951E+002	-1.4071115E+001	2.369847440559533E+001	3.9918646E-002	3.1790382E-003	3.8086438E-001	2.2512997E-002	1.000000000000000E+000	11	1.2931374E-001	8.4397692E-004	2.610568280082225E-005	0.0000000E+000	-1.0011009E+002	6.3307518E-003	1.5867825E-003	6.5265838E-003	1.4071115E+001	2.332899847139846E-006
1.0002229E+004	1.4905074E+002	4.1047817E+001	1.5459962E+002	-1.5397287E+001	2.415848712078878E+001	3.9918795E-002	3.2081534E-003	3.8764417E-001	2.7327286E-002	1.000000000000000E+000	11	1.3039538E-001	8.4343919E-004	2.677957823904580E-005	0.0000000E+000	-1.0005396E+002	6.2361602E-003	1.7174070E-003	6.4683212E-003	1.5397287E+001	6.738954382235508E-007
8.9149297E+003	1.4957056E+002	4.5327900E+001	1.5628810E+002	-1.6859621E+001	2.464091778371949E+001	3.9935093E-002	3.2596635E-003	3.9385521E-001	3.3129584E-002	1.000000000000000E+000	11	1.3126531E-001	8.3989318E-004	2.715290619349278E-005	0.0000000E+000	-1.0005396E+002	6.1234236E-003	1.8557255E-003	6.3984399E-003	1.6859621E+001	3.733279544469766E-007
7.9439976E+003	1.5016577E+002	5.0148380E+001	1.5831810E+002	-1.8466921E+001	2.516698074204032E+001	3.9938338E-002	3.2801921E-003	3.9950675E-001	4.0084530E-002	1.000000000000000E+000	11	1.3191986E-001	8.3325821E-004	2.781907251285485E-005	0.0000000E+000	-1.0009406E+002	5.9911450E-003	2.0007638E-003	6.3163973E-003	1.8466921E+001	6.661663193620676E-007
7.0822334E+003	1.5085406E+002	5.5519497E+001	1.6074628E+002	-2.0205355E+001	2.574385418277234E+001	3.9957918E-002	3.3761216E-003	4.0476632E-001	4.8285149E-002	1.000000000000000E+000	11	1.3240679E-001	8.2370051E-004	2.895769953484549E-005	0.0000000E+000	-1.0008604E+002	5.8381492E-003	2.1486401E-003	6.2209838E-003	2.0205355E+001	1.138627021990639E-006
6.3077344E+003	1.5165764E+002	6.1566280E+001	1.6367787E+002	-2.2094973E+001	2.637853021288174E+001	3.9954804E-002	3.1829565E-003	4.0983006E-001	5.7984207E-002	1.000000000000000E+000	11	1.3275737E-001	8.1108924E-004	2.889729401557194E-005	0.0000000E+000	-1.0006197E+002	5.6608850E-003	2.2980685E-003	6.1095613E-003	2.2094973E+001	-6.040551927354558E-008
5.6210552E+003	1.5260628E+002	6.8287018E+001	1.6718790E+002	-2.4107174E+001	2.707928544617607E+001	3.9958421E-002	3.1958339E-003	4.1463324E-001	6.9172062E-002	1.000000000000000E+000	11	1.3298546E-001	7.9542515E-004	2.958235613081428E-005	0.0000000E+000	-1.0004594E+002	5.4596243E-003	2.4430284E-003	5.9812944E-003	2.4107174E+001	6.850621152423398E-007
5.0116035E+003	1.5369409E+002	7.5736130E+001	1.7134128E+002	-2.6232782E+001	2.783970476233662E+001	3.9960474E-002	3.2167363E-003	4.1931492E-001	8.1926145E-002	1.000000000000000E+000	11	1.3311794E-001	7.7691698E-004	3.018546815581961E-005	0.0000000E+000	-1.0008604E+002	5.2351984E-003	2.5797586E-003	5.8363052E-003	2.6232782E+001	6.031120250053313E-007
4.4664292E+003	1.5495418E+002	8.4048233E+001	1.7628075E+002	-2.8475716E+001	2.859969498510327E+001	3.9956033E-002	3.1872478E-003	4.2396608E-001	9.6378133E-002	1.000000000000000E+000	11	1.3316177E-001	7.5539597E-004	3.043995008577713E-005	0.0000000E+000	-1.0008604E+002	4.9864734E-003	2.7046984E-003	5.6727692E-003	2.8475716E+001	2.544819299575138E-007
3.9812742E+003	1.5642369E+002	9.3258064E+001	1.8211380E+002	-3.0802927E+001	2.935969936786569E+001	3.9954804E-002	3.1232324E-003	4.2865869E-001	1.1240838E-001	1.000000000000000E+000	11	1.3314627E-001	7.3111575E-004	3.054043873828302E-005	0.0000000E+000	-1.0006197E+002	4.7164666E-003	2.8119050E-003	5.4910718E-003	3.0802927E+001	1.004886525058990E-007
3.5465955E+003	1.5814580E+002	1.0353380E+002	1.8902206E+002	-3.3211689E+001	3.011992201730027E+001	3.9963044E-002	3.1769814E-003	4.3343735E-001	1.3003661E-001	1.000000000000000E+000	11	1.3307738E-001	7.0403097E-004	3.072833776544828E-005	0.0000000E+000	-1.0004594E+002	4.4262167E-003	2.8977247E-003	5.2903877E-003	3.3211689E+001	1.878990271652573E-007
3.1610112E+003	1.6013876E+002	1.1486683E+002	1.9707565E+002	-3.5651707E+001	3.087969072005944E+001	3.9963774E-002	3.2055338E-003	4.3832827E-001	1.4890963E-001	1.000000000000000E+000	11	1.3297455E-001	6.7473861E-004	3.085581868497623E-005	0.0000000E+000	-1.0009406E+002	4.1231634E-003	2.9575268E-003	5.0741937E-003	3.5651707E+001	1.274809195279497E-007
2.8172952E+003	1.6243561E+002	1.2739317E+002	2.0643242E+002	-3.8105980E+001	3.163993304947508E+001	3.9963640E-002	3.1928413E-003	4.4344690E-001	1.6887996E-001	1.000000000000000E+000	11	1.3284442E-001	6.4352498E-004	3.121280434377150E-005	0.0000000E+000	-1.0009406E+002	3.8117589E-003	2.9894433E-003	4.8442003E-003	3.8105980E+001	3.569856587952661E-007
2.5108032E+003	1.6510045E+002	1.4126515E+002	2.1728783E+002	-4.0551338E+001	3.239970103225642E+001	3.9966084E-002	3.2103818E-003	4.4871691E-001	1.8965824E-001	1.000000000000000E+000	11	1.3269073E-001	6.1066804E-004	3.219753877403551E-005	0.0000000E+000	-1.0014217E+002	3.4968536E-003	2.9920181E-003	4.6021906E-003	4.0551338E+001	9.847344302640166E-007
2.2378516E+003	1.6812508E+002	1.5658694E+002	2.2975098E+002	-4.2964939E+001	3.315992165502394E+001	3.9965861E-002	3.2350172E-003	4.5418555E-001	2.1097437E-001	1.000000000000000E+000	11	1.3253710E-001	5.7687284E-004	3.337765185199310E-005	0.0000000E+000	-1.0004594E+002	3.1850613E-003	2.9664759E-003	4.3525388E-003	4.2964939E+001	1.180113077957587E-006
1.9956389E+003	1.7156763E+002	1.7336063E+002	2.4390440E+002	-4.5297832E+001	3.391969977111876E+001	3.9960004E-002	3.0892561E-003	4.6003163E-001	2.3240708E-001	1.000000000000000E+000	11	1.3238096E-001	5.4275757E-004	3.367006518660431E-005	0.0000000E+000	-1.0000583E+002	2.8840052E-003	2.9141454E-003	4.0999670E-003	4.5297832E+001	2.924133346112107E-007
1.7782927E+003	1.7550789E+002	1.9197688E+002	2.6011179E+002	-4.7566017E+001	3.467992836720077E+001	3.9962225E-002	3.2016085E-003	4.6619534E-001	2.5394857E-001	1.000000000000000E+000	11	1.3222988E-001	5.0835789E-004	3.444396615716384E-005	0.0000000E+000	-1.0007802E+002	2.5940395E-003	2.8374542E-003	3.8445010E-003	4.7566017E+001	7.739009705595257E-007
1.5855076E+003	1.7996625E+002	2.1240724E+002	2.7839664E+002	-4.9726398E+001	3.543966645665205E+001	3.9969552E-002	3.2329629E-003	4.7258779E-001	2.7510163E-001	1.000000000000000E+000	11	1.3209146E-001	4.7447221E-004	3.552113323722107E-005	0.0000000E+000	-1.0004594E+002	2.3220046E-003	2.7405727E-003	3.5919973E-003	4.9726398E+001	1.077167080057231E-006
1.4118373E+003	1.8507722E+002	2.3515253E+002	2.9924954E+002	-5.1795422E+001	3.620119305278058E+001	3.9967019E-002	3.1764130E-003	4.7938657E-001	2.9601803E-001	1.000000000000000E+000	11	1.3195518E-001	4.4095365E-004	3.629905861652696E-005	0.0000000E+000	-1.0009406E+002	2.0667408E-003	2.6259271E-003	3.3416927E-003	5.1795422E+001	7.779253793058937E-007
1.2587914E+003	1.9077737E+002	2.5993823E+002	3.2243433E+002	-5.3723808E+001	3.696092468890129E+001	3.9964296E-002	3.1721198E-003	4.8640293E-001	3.1612146E-001	1.000000000000000E+000	11	1.3184181E-001	4.0889508E-004	3.734037644405092E-005	0.0000000E+000	-1.0006999E+002	1.8350349E-003	2.5002742E-003	3.1014069E-003	5.3723808E+001	1.041317827523955E-006
1.1217948E+003	1.9724686E+002	2.8735333E+002	3.4853732E+002	-5.5533276E+001	3.797145265687141E+001	3.9954580E-002	1.2323606E-003	4.9373105E-001	3.3560187E-001	1.000000000000000E+000	12	1.3735250E-001	3.9408260E-004	3.745065745068476E-005	0.0000000E+000	-1.0006197E+002	1.6237214E-003	2.3654711E-003	2.8691331E-003	5.5533276E+001	1.102810066338394E-007
1.0003201E+003	2.0441292E+002	3.1729855E+002	3.7744272E+002	-5.7209194E+001	3.873067719963001E+001	3.9957937E-002	1.1985414E-003	5.0143319E-001	3.5436201E-001	1.000000000000000E+000	12	1.3634859E-001	3.6124315E-004	3.739183540240770E-005	0.0000000E+000	-1.0010207E+002	1.4348490E-003	2.2272347E-003	2.6494085E-003	5.7209194E+001	-5.882204827705655E-008
8.9142657E+002	2.1244655E+002	3.5044022E+002	4.0980713E+002	-5.8774597E+001	3.948943630230497E+001	3.9960247E-002	1.2117545E-003	5.0947231E-001	3.7255421E-001	1.000000000000000E+000	12	1.3548279E-001	3.3060135E-004	3.738614806437242E-005	0.0000000E+000	-1.0005396E+002	1.2650004E-003	2.0866755E-003	2.4401722E-003	5.8774597E+001	-5.687338035280853E-009
7.9423773E+002	2.2148956E+002	3.8693909E+002	4.4584692E+002	-6.0212551E+001	4.024895905840094E+001	3.9947156E-002	1.2618293E-003	5.1787746E-001	3.9006832E-001	1.000000000000000E+000	12	1.3474154E-001	3.0221482E-004	3.776046517552721E-005	0.0000000E+000	-1.0005396E+002	1.1142476E-003	1.9465747E-003	2.2429223E-003	6.0212551E+001	3.743171111547926E-007
7.0750946E+002	2.3156107E+002	4.2717438E+002	4.8589966E+002	-6.1538933E+001	4.101144197458052E+001	3.9949320E-002	1.2308836E-003	5.2660221E-001	4.0700513E-001	1.000000000000000E+000	12	1.3412172E-001	2.7602760E-004	3.786207465301009E-005	0.0000000E+000	-1.0008604E+002	9.8078162E-004	1.8093059E-003	2.0580380E-003	6.1538933E+001	1.016094774828778E-007
6.3100964E+002	2.4265698E+002	4.7096902E+002	5.2980585E+002	-6.2741154E+001	4.176945659724879E+001	3.9953347E-002	1.2282127E-003	5.3553987E-001	4.2319739E-001	1.000000000000000E+000	12	1.3360396E-001	2.5217532E-004	3.797849762068917E-005	0.0000000E+000	-1.0005396E+002	8.6448871E-004	1.6778720E-003	1.8874839E-003	6.2741154E+001	1.164229676790801E-007
5.6233929E+002	2.5508488E+002	5.1932697E+002	5.7859210E+002	-6.3840488E+001	4.252592169988202E+001	3.9961349E-002	1.2126655E-003	5.4498035E-001	4.3905362E-001	1.000000000000000E+000	12	1.3314235E-001	2.3011437E-004	3.836685826156402E-005	0.0000000E+000	-1.0006999E+002	7.6197321E-004	1.5513004E-003	1.7283333E-003	6.3840488E+001	3.883606408748536E-007
5.0144415E+002	2.6891528E+002	5.7239014E+002	6.3241278E+002	-6.4835335E+001	4.328318496249267E+001	3.9956778E-002	1.2310118E-003	5.5450493E-001	4.5424318E-001	1.000000000000000E+000	12	1.3280579E-001	2.0999859E-004	3.845584026343587E-005	0.0000000E+000	-1.0006197E+002	6.7237916E-004	1.4311688E-003	1.5812457E-003	6.4835335E+001	8.898200187185075E-008
4.4685895E+002	2.8427917E+002	6.3095398E+002	6.9203870E+002	-6.5745834E+001	4.403991753180162E+001	3.9959632E-002	1.2177415E-003	5.6448448E-001	4.6923089E-001	1.000000000000000E+000	12	1.3250712E-001	1.9147356E-004	3.889683187248840E-005	0.0000000E+000	-1.0002989E+002	5.9358694E-004	1.3174583E-003	1.4450059E-003	6.5745834E+001	4.409916090525220E-007
3.9808920E+002	3.0138449E+002	6.9551697E+002	7.5800824E+002	-6.6571739E+001	4.480268983470160E+001	3.9956871E-002	1.1925265E-003	5.7482016E-001	4.8394901E-001	1.000000000000000E+000	12	1.3226312E-001	1.7448771E-004	3.920991248755895E-005	0.0000000E+000	-1.0005396E+002	5.2453321E-004	1.2104863E-003	1.3192468E-003	6.6571739E+001	3.130806150705495E-007
3.5465955E+002	3.2050821E+002	7.6657184E+002	8.3087781E+002	-6.7309906E+001	4.556196035075118E+001	3.9956350E-002	1.2189915E-003	5.8540392E-001	4.9829558E-001	1.000000000000000E+000	12	1.3205627E-001	1.5893584E-004	3.933143798660947E-005	0.0000000E+000	-1.0011812E+002	4.6426387E-004	1.1103977E-003	1.2035464E-003	6.7309906E+001	1.215254990505254E-007
3.1631586E+002	3.4112848E+002	8.4368042E+002	9.1003589E+002	-6.7984856E+001	4.631891244003782E+001	3.9958347E-002	1.2121412E-003	5.9637743E-001	5.1257813E-001	1.000000000000000E+000	12	1.3188952E-001	1.4492782E-004	3.971348257847846E-005	0.0000000E+000	-1.0006197E+002	4.1190864E-004	1.0187343E-003	1.0988577E-003	6.7984856E+001	3.820445918689859E-007
2.8189429E+002	3.6435382E+002	9.2916064E+002	9.9804468E+002	-6.8588257E+001	4.707439770255587E+001	3.9957359E-002	1.2059258E-003	6.0763538E-001	5.2665317E-001	1.000000000000000E+000	12	1.3175583E-001	1.3201396E-004	3.989279435627819E-005	0.0000000E+000	-1.0003791E+002	3.6578285E-004	9.3280501E-004	1.0019592E-003	6.8588257E+001	1.793117777997371E-007
2.5104436E+002	3.9005945E+002	1.0234902E+003	1.0952983E+003	-6.9137794E+001	4.783091213851003E+001	3.9955642E-002	1.1932709E-003	6.1942106E-001	5.4086447E-001	1.000000000000000E+000	12	1.3164169E-001	1.2018797E-004	4.023601843845750E-005	0.0000000E+000	-1.0005396E+002	3.2513670E-004	8.5313705E-004	9.1299327E-004	6.9137794E+001	3.432240821793053E-007
2.2392513E+002	4.1818173E+002	1.1259185E+003	1.2010697E+003	-6.9624306E+001	4.859371742809890E+001	3.9957359E-002	1.1965182E-003	6.3126308E-001	5.5473787E-001	1.000000000000000E+000	12	1.3155186E-001	1.0952891E-004	4.057439930705914E-005	0.0000000E+000	-1.0005396E+002	2.8988693E-004	7.8049576E-004	8.3259115E-004	6.9624306E+001	3.383808686016404E-007
1.9955299E+002	4.4959402E+002	1.2393044E+003	1.3183362E+003	-7.0060280E+001	4.935519781088806E+001	3.9951745E-002	1.2072125E-003	6.4355230E-001	5.6870562E-001	1.000000000000000E+000	12	1.3147834E-001	9.9730511E-005	4.093511133650726E-005	0.0000000E+000	-1.0008604E+002	2.5868311E-004	7.1305933E-004	7.5853185E-004	7.0060280E+001	3.607120294481212E-007
1.7778128E+002	4.8434665E+002	1.3638899E+003	1.4473380E+003	-7.0448952E+001	5.012326774068060E+001	3.9950363E-002	1.1931398E-003	6.5637916E-001	5.8287239E-001	1.000000000000000E+000	12	1.3141537E-001	9.0797977E-005	4.120346389702354E-005	0.0000000E+000	-1.0005396E+002	2.3121522E-004	6.5108750E-004	6.9092360E-004	7.0448952E+001	2.683525605162815E-007
1.5842838E+002	5.2268866E+002	1.5006399E+003	1.5890637E+003	-7.0796234E+001	5.088976385715068E+001	3.9958235E-002	1.1920385E-003	6.6943848E-001	5.9700924E-001	1.000000000000000E+000	12	1.3136446E-001	8.2667837E-005	4.144853225361233E-005	0.0000000E+000	-1.0008604E+002	2.0699529E-004	5.9428375E-004	6.2930136E-004	7.0796234E+001	2.450683565887899E-007
1.4131134E+002	5.6435211E+002	1.6497926E+003	1.7436482E+003	-7.1115486E+001	5.164191730620223E+001	3.9948091E-002	1.2002503E-003	6.8267465E-001	6.1115974E-001	1.000000000000000E+000	12	1.3132825E-001	7.5318094E-005	4.164593762456227E-005	0.0000000E+000	-1.0005396E+002	1.8562328E-004	5.4263975E-004	5.7351019E-004	7.1115486E+001	1.974053709499337E-007
1.2584569E+002	6.1075623E+002	1.8154342E+003	1.9154176E+003	-7.1405807E+001	5.239740128870471E+001	3.9951876E-002	1.2041510E-003	6.9662857E-001	6.2579972E-001	1.000000000000000E+000	12	1.3129145E-001	6.8544556E-005	4.195993074173849E-005	0.0000000E+000	-1.0005396E+002	1.6647192E-004	4.9482717E-004	5.2207935E-004	7.1405807E+001	3.139931171762254E-007
1.1218996E+002	6.6146399E+002	1.9960460E+003	2.1027920E+003	-7.1665466E+001	5.314285809750436E+001	3.9953161E-002	1.2183537E-003	7.1071523E-001	6.4038932E-001	1.000000000000000E+000	12	1.3126531E-001	6.2424297E-005	4.228103910660431E-005	0.0000000E+000	-1.0002989E+002	1.4959380E-004	4.5141700E-004	4.7555822E-004	7.1665466E+001	3.211083648658198E-007
1.0003201E+002	7.1766656E+002	2.1946018E+003	2.3089656E+003	-7.1891502E+001	5.390268424025999E+001	3.9952025E-002	1.1884541E-003	7.2497892E-001	6.5494066E-001	1.000000000000000E+000	12	1.3124588E-001	5.6841851E-005	4.253506061511017E-005	0.0000000E+000	-1.0005396E+002	1.3461326E-004	4.1164304E-004	4.3309436E-004	7.1891502E+001	2.540215085058609E-007
8.9115974E+001	7.7891620E+002	2.4146367E+003	2.5371599E+003	-7.2121277E+001	5.466975278336031E+001	3.9948929E-002	1.2045982E-003	7.3962706E-001	6.6991651E-001	1.000000000000000E+000	12	1.3122703E-001	5.1722018E-005	4.274828541555871E-005	0.0000000E+000	-1.0006999E+002	1.2100271E-004	3.7510780E-004	3.9414151E-004	7.2121277E+001	2.132248004485396E-007
7.9415527E+001	8.4720831E+002	2.6554912E+003	2.7873635E+003	-7.2305229E+001	5.568623147162725E+001	3.9958179E-002	1.0341333E-003	7.5469220E-001	6.8497127E-001	1.000000000000000E+000	13	1.3177592E-001	4.7276186E-005	4.311066548144199E-005	0.0000000E+000	-1.0005396E+002	1.0904430E-004	3.4178866E-004	3.5876196E-004	7.2305229E+001	3.623800658832734E-007
7.0838745E+001	9.2109491E+002	2.9180269E+003	3.0599504E+003	-7.2481346E+001	5.643739798726165E+001	3.9962355E-002	1.0327912E-003	7.6994550E-001	7.0018011E-001	1.000000000000000E+000	13	1.3166210E-001	4.3027529E-005	4.330102783826846E-005	0.0000000E+000	-1.0011009E+002	9.8372933E-005	3.1164524E-004	3.2680269E-004	7.2481346E+001	1.903623568264731E-007
6.3082302E+001	1.0037343E+003	3.2104785E+003	3.3637263E+003	-7.2638504E+001	5.721781946437841E+001	3.9962858E-002	1.0428085E-003	7.8585577E-001	7.1588141E-001	1.000000000000000E+000	13	1.3156289E-001	3.9112245E-005	4.352357584509668E-005	0.0000000E+000	-1.0006197E+002	8.8710978E-005	2.8374515E-004	2.9728934E-004	7.2638504E+001	2.225480068282219E-007
5.6241817E+001	1.0930272E+003	3.5291572E+003	3.6945444E+003	-7.2791542E+001	5.796134141963557E+001	3.9962243E-002	1.0369607E-003	8.0184382E-001	7.3166120E-001	1.000000000000000E+000	13	1.3148335E-001	3.5588513E-005	4.371292525165144E-005	0.0000000E+000	-1.0006197E+002	8.0077283E-005	2.5855278E-004	2.7066938E-004	7.2791542E+001	1.893494065547565E-007
5.0144413E+001	1.1893701E+003	3.8779700E+003	4.0562610E+003	-7.2949272E+001	5.871819780228543E+001	3.9958477E-002	1.0383922E-003	8.1845182E-001	7.4808377E-001	1.000000000000000E+000	13	1.3141853E-001	3.2398933E-005	4.391630882002685E-005	0.0000000E+000	-1.0006999E+002	7.2287825E-005	2.3569627E-004	2.4653247E-004	7.2949272E+001	2.033835683754102E-007
4.4671219E+001	1.3011022E+003	4.2670459E+003	4.4610029E+003	-7.3042557E+001	5.948222861191607E+001	3.9957639E-002	1.0352584E-003	8.3495873E-001	7.6393187E-001	1.000000000000000E+000	13	1.3136810E-001	2.9448109E-005	4.412945595116596E-005	0.0000000E+000	-1.0004594E+002	6.5380213E-005	2.1441851E-004	2.2416483E-004	7.3042557E+001	2.131471311391130E-007
3.9808922E+001	1.4209524E+003	4.6919600E+003	4.9024067E+003	-7.3151146E+001	6.024470638149069E+001	3.9954301E-002	1.0369904E-003	8.5208994E-001	7.8050435E-001	1.000000000000000E+000	13	1.3133028E-001	2.6788941E-005	4.438307522574329E-005	0.0000000E+000	-1.0003791E+002	5.9123606E-005	1.9522508E-004	2.0398144E-004	7.3151146E+001	2.536192745773299E-007
3.5465305E+001	1.5529706E+003	5.1613281E+003	5.3899004E+003	-7.3254204E+001	6.099514332375838E+001	3.9958533E-002	1.0415369E-003	8.6947072E-001	7.9729021E-001	1.000000000000000E+000	13	1.3129693E-001	2.4359806E-005	4.455573317117150E-005	0.0000000E+000	-1.0007802E+002	5.3456650E-005	1.7766423E-004	1.8553219E-004	7.3254204E+001	1.726579454282059E-007
3.1629551E+001	1.6965658E+003	5.6715244E+003	5.9198418E+003	-7.3346100E+001	6.171942386482260E+001	3.9958086E-002	1.0417665E-003	8.8721180E-001	8.1434178E-001	1.000000000000000E+000	13	1.3126773E-001	2.2174196E-005	4.474118213892426E-005	0.0000000E+000	-1.0004594E+002	4.8411726E-005	1.6183767E-004	1.6892343E-004	7.3346100E+001	1.854489677527652E-007
2.8170074E+001	1.8578394E+003	6.2393628E+003	6.5100854E+003	-7.3418518E+001	6.252374979639717E+001	3.9949488E-002	1.0338246E-003	9.0550715E-001	8.3176184E-001	1.000000000000000E+000	13	1.3124296E-001	2.0159945E-005	4.499919955090031E-005	0.0000000E+000	-1.0011009E+002	4.3836390E-005	1.4722002E-004	1.5360782E-004	7.3418518E+001	2.580174119760459E-007
2.5104435E+001	2.0321654E+003	6.8617163E+003	7.1563149E+003	-7.3502823E+001	6.327990015229443E+001	3.9958812E-002	1.0486724E-003	9.2392552E-001	8.4942210E-001	1.000000000000000E+000	13	1.3122818E-001	1.8337396E-005	4.523130072054664E-005	0.0000000E+000	-1.0006197E+002	3.9680770E-005	1.3398427E-004	1.3973672E-004	7.3502823E+001	2.321011696463371E-007
2.2385387E+001	2.2250647E+003	7.5430576E+003	7.8643901E+003	-7.3564903E+001	6.396643570487504E+001	3.9958104E-002	1.0419195E-003	9.4255799E-001	8.6710733E-001	1.000000000000000E+000	13	1.3121542E-001	1.6684755E-005	4.540758588884869E-005	0.0000000E+000	-1.0010207E+002	3.5975965E-005	1.2195997E-004	1.2715544E-004	7.3564903E+001	1.762851683020510E-007