EC-Lab ASCII FILE
Nb header lines : 75                          

Potentio Electrochemical Impedance Spectroscopy

Run on channel : 3 (SN 20921)
User : 
CE vs. WE compliance from -10 V to 10 V
Electrode connection : standard
Ewe ctrl range : min = -10.00 V, max = 10.00 V
Safety Limits :
	Do not start on E overload
Acquisition started on : 01/24/2020 09:52:07
Technique started on : 01/24/2020 09:52:08
Saved on :
	File : DE_40_7_60.mpr
	Directory : P:\Chemistry\Data\VMP3\Kyler\DOE\DE_40\2ND 60C\
	Host : 10.0.4.99
Device : VMP3 (SN 0183)
Address : USB
EC-Lab for windows v11.33 (software)
Internet server v11.32 (firmware)
Command interpretor v11.33 (firmware)
Electrode material : 
Initial state : 
Electrolyte : 
Comments : 
Electrode surface area : 0.001 cm²
Characteristic mass : 0.001 g
Equivalent Weight : 0.000 g/eq.
Density : 0.000 g/cm3
Record Analogic IN 1
Cycle Definition : Charge/Discharge alternance
External device configuration :
   device type : Thermostat
   device name : Other
   Analog OUT : 
      mode : E/V
      unit : T/°C
      max : 400.000 at 5.000 V
      min : -100.000 at 0.000 V
      current : 0.000
   Analog IN 1 : 
      unit : T/°C
      max : 400.000 at 5.000 V
      min : -100.000 at 0.000 V
Mode                Single sine         
E (V)               0.0000              
vs.                 Eoc                 
tE (h:m:s)          0:00:0.0000         
record              0                   
dI                  1.000               
unit dI             mA                  
dt (s)              0.000               
fi                  1.000               
unit fi             MHz                 
ff                  1.000               
unit ff             Hz                  
Nd                  20                  
Points              per decade          
spacing             Logarithmic         
Va (mV)             128.0               
pw                  0.50                
Na                  3                   
corr                0                   
E range min (V)     -10.000             
E range max (V)     10.000              
I Range             Auto                
Bandwidth           5                   
nc cycles           0                   
goto Ns'            0                   
nr cycles           0                   
inc. cycle          1                   

freq/Hz	Re(Z)/Ohm	-Im(Z)/Ohm	|Z|/Ohm	Phase(Z)/deg	time/s	<Ewe>/V	<I>/mA	Cs/µF	Cp/µF	cycle number	I Range	|Ewe|/V	|I|/A	(Q-Qo)/mA.h	Analog OUT/V	Analog IN 1/V	Re(Y)/Ohm-1	Im(Y)/Ohm-1	|Y|/Ohm-1	Phase(Y)/deg	dq/mA.h	
1.0000186E+006	5.5886235E+000	-2.1543896E+001	2.2256958E+001	7.5457649E+001	1.845600087690400E+000	9.3312394E-003	2.6173192E-001	-7.3873354E-003	-6.9215712E-003	1.000000000000000E+000	9	2.1368996E-005	9.6010410E-007	2.759336571544474E-005	0.0000000E+000	-1.0008792E+002	1.1281665E-002	-4.3490324E-002	4.4929769E-002	-7.5457649E+001	2.759336571544474E-005
8.9124669E+005	4.9979565E+001	1.0023279E+001	5.0974728E+001	-1.1340096E+001	3.022469983523479E+000	9.6883643E-003	2.0315670E-003	1.7816089E-002	6.8884611E-004	1.000000000000000E+000	11	3.1310270E-004	6.1423125E-006	5.344169267560048E-005	0.0000000E+000	-1.0009594E+002	1.9234577E-002	3.8574475E-003	1.9617565E-002	1.1340096E+001	2.584832696015575E-005
7.9433269E+005	5.0685020E+001	9.0196629E+000	5.1481312E+001	-1.0090452E+001	3.618473771814024E+000	1.0018166E-002	1.9046377E-003	2.2214033E-002	6.8188133E-004	1.000000000000000E+000	11	9.1421488E-004	1.7758190E-005	5.391074445428694E-005	0.0000000E+000	-1.0011197E+002	1.9124074E-002	3.4032285E-003	1.9424524E-002	1.0090452E+001	4.690517786864597E-007
7.0794981E+005	5.2225689E+001	8.0114965E+000	5.2836605E+001	-8.7212696E+000	4.214493053470505E+000	1.0335574E-002	2.0757425E-003	2.8061057E-002	6.4515119E-004	1.000000000000000E+000	11	1.8992213E-003	3.5945181E-005	5.420857080257853E-005	0.0000000E+000	-1.0012801E+002	1.8707441E-002	2.8697483E-003	1.8926272E-002	8.7212696E+000	2.978263482915862E-007
6.3095681E+005	5.3448158E+001	7.3063207E+000	5.3945232E+001	-7.7840405E+000	4.810481695138151E+000	1.0580423E-002	1.9007248E-003	3.4524053E-002	6.3330529E-004	1.000000000000000E+000	11	3.3416869E-003	6.1945917E-005	5.454585831720437E-005	0.0000000E+000	-1.0010395E+002	1.8366510E-002	2.5106871E-003	1.8537320E-002	7.7840405E+000	3.372875146258366E-007
5.6234225E+005	5.4547375E+001	6.8544769E+000	5.4976357E+001	-7.1623030E+000	5.406490550114540E+000	1.0796458E-002	2.0589698E-003	4.1290019E-002	6.4186228E-004	1.000000000000000E+000	11	5.2933493E-003	9.6284108E-005	5.489601105244098E-005	0.0000000E+000	-1.0003982E+002	1.8047702E-002	2.2678922E-003	1.8189637E-002	7.1623030E+000	3.501527352366100E-007
5.0120619E+005	5.5502708E+001	6.3674226E+000	5.5866760E+001	-6.5445170E+000	6.002490445069270E+000	1.0967463E-002	2.1508604E-003	4.9870078E-002	6.4782903E-004	1.000000000000000E+000	11	7.7758231E-003	1.3918514E-004	5.536612539279870E-005	0.0000000E+000	-1.0010395E+002	1.7783089E-002	2.0401247E-003	1.7899731E-002	6.5445170E+000	4.701143403577188E-007
4.4668572E+005	5.6252720E+001	6.0033288E+000	5.6572151E+001	-6.0915885E+000	6.598486260074424E+000	1.1079366E-002	1.8727703E-003	5.9350707E-002	6.6835131E-004	1.000000000000000E+000	11	1.0814871E-002	1.9116951E-004	5.543287874713617E-005	0.0000000E+000	-1.0010395E+002	1.7576732E-002	1.8758009E-003	1.7676542E-002	6.0915885E+000	6.675335433747903E-008
3.9810347E+005	5.6889965E+001	5.6408038E+000	5.7168934E+001	-5.6625328E+000	7.194486048334511E+000	1.1101788E-002	1.8765009E-003	7.0873387E-002	6.8999350E-004	1.000000000000000E+000	11	1.4452686E-002	2.5280664E-004	5.536686181632346E-005	0.0000000E+000	-1.0007188E+002	1.7406661E-002	1.7259205E-003	1.7492017E-002	5.6625328E+000	-6.601693081271804E-008
3.5480997E+005	5.7390652E+001	5.2813945E+000	5.7633152E+001	-5.2578549E+000	7.790486263314961E+000	1.1124377E-002	1.9115444E-003	8.4932856E-002	7.1322767E-004	1.000000000000000E+000	11	1.8699806E-002	3.2446266E-004	5.658044913368778E-005	0.0000000E+000	-1.0011197E+002	1.7278118E-002	1.5900247E-003	1.7351124E-002	5.2578549E+000	1.213587317364329E-006
3.1622997E+005	5.7769730E+001	4.9417424E+000	5.7980709E+001	-4.8892970E+000	8.385493171605049E+000	1.1106709E-002	1.9478920E-003	1.0184436E-001	7.3982700E-004	1.000000000000000E+000	11	2.3579741E-002	4.0668252E-004	5.679606940177554E-005	0.0000000E+000	-1.0009594E+002	1.7184358E-002	1.4699856E-003	1.7247116E-002	4.8892970E+000	2.156202680877572E-007
2.8183453E+005	5.8094467E+001	4.6121974E+000	5.8277264E+001	-4.5392675E+000	8.981486506556394E+000	1.1102161E-002	1.8286039E-003	1.2243851E-001	7.6689431E-004	1.000000000000000E+000	11	2.9189797E-002	5.0087797E-004	5.605648016420795E-005	0.0000000E+000	-1.0007990E+002	1.7105527E-002	1.3580307E-003	1.7159350E-002	4.5392675E+000	-7.395892375675937E-007
2.5118764E+005	5.8329147E+001	4.3302426E+000	5.8489662E+001	-4.2457390E+000	9.577482161548687E+000	1.1109449E-002	1.8140709E-003	1.4632200E-001	8.0200279E-004	1.000000000000000E+000	11	3.5514642E-002	6.0719519E-004	5.672314834006506E-005	0.0000000E+000	-1.0011999E+002	1.7050119E-002	1.2657677E-003	1.7097039E-002	4.2457390E+000	6.666681758571086E-007
2.2387173E+005	5.8503681E+001	4.0753326E+000	5.8645451E+001	-3.9847541E+000	1.017247720315936E+001	1.1125179E-002	1.8651453E-003	1.7444471E-001	8.4239402E-004	1.000000000000000E+000	11	4.2626332E-002	7.2684808E-004	5.743015603982430E-005	0.0000000E+000	-1.0009594E+002	1.7010400E-002	1.1849346E-003	1.7051620E-002	3.9847541E+000	7.070076997592382E-007
1.9954350E+005	5.8647995E+001	3.8476338E+000	5.8774071E+001	-3.7535419E+000	1.076947341815685E+001	1.1142308E-002	2.0690570E-003	2.0729499E-001	8.8839221E-004	1.000000000000000E+000	11	5.0483480E-002	8.5894135E-004	5.877190398379591E-005	0.0000000E+000	-1.0009594E+002	1.6977808E-002	1.1138384E-003	1.7014306E-002	3.7535419E+000	1.341747943971616E-006
1.7783180E+005	5.8760624E+001	3.6752188E+000	5.8875446E+001	-3.5789371E+000	1.136549459313392E+001	1.1161488E-002	2.1087562E-003	2.4351600E-001	9.4891101E-004	1.000000000000000E+000	11	5.9032276E-002	1.0026637E-003	5.916977072812410E-005	0.0000000E+000	-1.0010395E+002	1.6951883E-002	1.0602658E-003	1.6985008E-002	3.5789371E+000	3.978667443281885E-007
1.5848613E+005	5.8838909E+001	3.5311635E+000	5.8944775E+001	-3.4344344E+000	1.196147616810049E+001	1.1177945E-002	2.2299103E-003	2.8438786E-001	1.0206013E-003	1.000000000000000E+000	11	6.8227574E-002	1.1574830E-003	5.797388588523286E-005	0.0000000E+000	-1.0003180E+002	1.6934562E-002	1.0163123E-003	1.6965032E-002	3.4344344E+000	-1.195884842891244E-006
1.4125594E+005	5.8900539E+001	3.4351695E+000	5.9000626E+001	-3.3377964E+000	1.255748408977524E+001	1.1158673E-002	1.8884604E-003	3.2799351E-001	1.1118555E-003	1.000000000000000E+000	11	7.8060076E-002	1.3230381E-003	5.677738400293230E-005	0.0000000E+000	-1.0007188E+002	1.6920220E-002	9.8681310E-004	1.6948972E-002	3.3377964E+000	-1.196501882300557E-006
1.2590930E+005	5.8950058E+001	3.3775299E+000	5.9046738E+001	-3.2791631E+000	1.315449283810449E+001	1.1159009E-002	1.8461569E-003	3.7425113E-001	1.2245309E-003	1.000000000000000E+000	11	8.8618793E-002	1.5008246E-003	5.892847627987956E-005	0.0000000E+000	-1.0011999E+002	1.6908007E-002	9.6874026E-004	1.6935736E-002	3.2791631E+000	2.151092276947260E-006
1.1220494E+005	5.8985439E+001	3.3602643E+000	5.9081074E+001	-3.2604842E+000	1.375047270642244E+001	1.1226740E-002	2.7451091E-003	4.2211884E-001	1.3654784E-003	1.000000000000000E+000	11	1.0001323E-001	1.6928132E-003	5.990842569719017E-005	0.0000000E+000	-1.0013602E+002	1.6898496E-002	9.6266827E-004	1.6925894E-002	3.2604842E+000	9.799494173106101E-007
1.0000371E+005	5.9020870E+001	3.3792591E+000	5.9117531E+001	-3.2769108E+000	1.434548857467598E+001	1.1160631E-002	1.7572574E-003	4.7095832E-001	1.5388380E-003	1.000000000000000E+000	11	1.1241799E-001	1.9016016E-003	6.123106769857987E-005	0.0000000E+000	-1.0006387E+002	1.6887797E-002	9.6691633E-004	1.6915455E-002	3.2769108E+000	1.322642001389698E-006
8.9129305E+004	5.9055485E+001	3.4353933E+000	5.9155323E+001	-3.3292751E+000	1.480448835648713E+001	1.1178766E-002	1.8498919E-003	5.1978427E-001	1.7530263E-003	1.000000000000000E+000	11	1.2588072E-001	2.1279694E-003	5.963614094921569E-005	0.0000000E+000	-1.0011197E+002	1.6876120E-002	9.8172273E-004	1.6904650E-002	3.3292751E+000	-1.594926749364179E-006
7.9433273E+004	5.9087353E+001	3.5329912E+000	5.9192883E+001	-3.4217942E+000	1.526348093830165E+001	1.1200070E-002	2.1017042E-003	5.6712019E-001	2.0203250E-003	1.000000000000000E+000	11	1.4059418E-001	2.3751874E-003	6.157871875130028E-005	0.0000000E+000	-1.0011197E+002	1.6863804E-002	1.0083320E-003	1.6893923E-002	3.4217942E+000	1.942577802084596E-006
7.0794977E+004	5.9107300E+001	3.6713543E+000	5.9221210E+001	-3.5542684E+000	1.585948627328617E+001	1.1248715E-002	1.7123434E-003	6.1233824E-001	2.3533658E-003	1.000000000000000E+000	11	1.3071948E-001	2.2073085E-003	6.084362746465356E-005	0.0000000E+000	-1.0007188E+002	1.6853362E-002	1.0468193E-003	1.6885841E-002	3.5542684E+000	-7.350912866467248E-007
6.3093828E+004	5.9127277E+001	3.8555112E+000	5.9252846E+001	-3.7308030E+000	1.645649176827283E+001	1.1300287E-002	2.2019802E-003	6.5426135E-001	2.7701086E-003	1.000000000000000E+000	11	1.2973365E-001	2.1894923E-003	5.813205317872861E-005	0.0000000E+000	-1.0006387E+002	1.6841060E-002	1.0981547E-003	1.6876826E-002	3.7308030E+000	-2.711574285924948E-006
5.6237012E+004	5.9139851E+001	4.0850921E+000	5.9280773E+001	-3.9514360E+000	1.705349390328047E+001	1.1335103E-002	2.1896784E-003	6.9278109E-001	3.2898192E-003	1.000000000000000E+000	11	1.2953214E-001	2.1850616E-003	5.555795613581884E-005	0.0000000E+000	-1.0007990E+002	1.6828775E-002	1.1624497E-003	1.6868876E-002	3.9514360E+000	-2.574097042909772E-006
5.0122477E+004	5.9158806E+001	4.3598876E+000	5.9319244E+001	-4.2149663E+000	1.764849427822628E+001	1.1360358E-002	2.2273292E-003	7.2830331E-001	3.9343382E-003	1.000000000000000E+000	11	1.2956785E-001	2.1842464E-003	5.848216169179391E-005	0.0000000E+000	-1.0008792E+002	1.6812339E-002	1.2390364E-003	1.6857935E-002	4.2149663E+000	2.924205555975075E-006
4.4666715E+004	5.9178246E+001	4.6906023E+000	5.9363850E+001	-4.5319190E+000	1.824349089313182E+001	1.1373851E-002	2.0375873E-003	7.5963944E-001	4.7426447E-003	1.000000000000000E+000	11	1.2943064E-001	2.1802939E-003	5.672289150421016E-005	0.0000000E+000	-1.0007188E+002	1.6792601E-002	1.3310198E-003	1.6845269E-002	4.5319190E+000	-1.759270187583754E-006
3.9814063E+004	5.9195927E+001	5.0730042E+000	5.9412903E+001	-4.8981967E+000	1.883949105479405E+001	1.1414651E-002	2.5743817E-003	7.8798586E-001	5.7449644E-003	1.000000000000000E+000	11	1.2940374E-001	2.1780410E-003	5.880652615012110E-005	0.0000000E+000	-1.0011197E+002	1.6769892E-002	1.4371553E-003	1.6831361E-002	4.8981967E+000	2.083634645910938E-006
3.5480996E+004	5.9221878E+001	5.5211930E+000	5.9478687E+001	-5.3262291E+000	1.943447068307432E+001	1.1401865E-002	1.9121463E-003	8.1244016E-001	7.0005879E-003	1.000000000000000E+000	11	1.2935618E-001	2.1748324E-003	5.448862672274440E-005	0.0000000E+000	-1.0011197E+002	1.6740153E-002	1.5606667E-003	1.6812745E-002	5.3262291E+000	-4.317899427376693E-006
3.1621143E+004	5.9260647E+001	6.0325675E+000	5.9566906E+001	-5.8125267E+000	1.989347446485772E+001	1.1399554E-002	2.0273365E-003	8.3433485E-001	8.5572591E-003	1.000000000000000E+000	11	1.4067626E-001	2.3616513E-003	5.551762605944209E-005	0.0000000E+000	-1.0006387E+002	1.6701533E-002	1.7001691E-003	1.6787846E-002	5.8125267E+000	1.028999336697681E-006
2.8188096E+004	5.9294186E+001	6.6136022E+000	5.9661880E+001	-6.3643966E+000	2.048947393315029E+001	1.1428573E-002	2.1686149E-003	8.5372168E-001	1.0490558E-002	1.000000000000000E+000	11	1.3041651E-001	2.1859270E-003	5.567129237544335E-005	0.0000000E+000	-1.0002379E+002	1.6657822E-002	1.8579934E-003	1.6761120E-002	6.3643966E+000	1.536663160012656E-007
2.5116910E+004	5.9342945E+001	7.2747450E+000	5.9787182E+001	-6.9889164E+000	2.094949347499642E+001	1.1444845E-002	2.2757875E-003	8.7103611E-001	1.2896014E-002	1.000000000000000E+000	11	1.4031173E-001	2.3468530E-003	5.429807972453354E-005	0.0000000E+000	-1.0009594E+002	1.6601713E-002	2.0351743E-003	1.6725993E-002	6.9889164E+000	-1.373212650909816E-006
2.2389027E+004	5.9395416E+001	8.0228891E+000	5.9934818E+001	-7.6927180E+000	2.154448870327906E+001	1.1450790E-002	2.1714100E-003	8.8604164E-001	1.5876593E-002	1.000000000000000E+000	11	1.3018592E-001	2.1721250E-003	5.176288932184818E-005	0.0000000E+000	-1.0007188E+002	1.6534634E-002	2.2334303E-003	1.6684793E-002	7.6927180E+000	-2.535190402685353E-006
1.9948783E+004	5.9463230E+001	8.8675785E+000	6.0120792E+001	-8.4818459E+000	2.200447509848163E+001	1.1455189E-002	2.1242569E-003	8.9970195E-001	1.9573089E-002	1.000000000000000E+000	11	1.3829967E-001	2.3003635E-003	5.369764169331595E-005	0.0000000E+000	-1.0010395E+002	1.6451258E-002	2.4533281E-003	1.6633181E-002	8.4818459E+000	1.934752371467765E-006
1.7786895E+004	5.9538403E+001	9.8123932E+000	6.0341564E+001	-9.3586645E+000	2.260049526012153E+001	1.1475802E-002	2.1661925E-003	9.1189551E-001	2.4113588E-002	1.000000000000000E+000	11	1.2982190E-001	2.1514506E-003	5.132577950940807E-005	0.0000000E+000	-1.0008792E+002	1.6351743E-002	2.6948948E-003	1.6572325E-002	9.3586645E+000	-2.371862183907874E-006
1.5847686E+004	5.9632774E+001	1.0874874E+001	6.0616257E+001	-1.0335118E+001	2.305948210859788E+001	1.1457146E-002	1.9773834E-003	9.2348540E-001	2.9723523E-002	1.000000000000000E+000	11	1.3609231E-001	2.2451454E-003	4.992829553683340E-005	0.0000000E+000	-1.0006387E+002	1.6229561E-002	2.9596884E-003	1.6497225E-002	1.0335118E+001	-1.397483972574670E-006
1.4121879E+004	5.9736023E+001	1.2068425E+001	6.0942917E+001	-1.1421685E+001	2.365449112348142E+001	1.1476007E-002	2.0411254E-003	9.3384987E-001	3.6621131E-002	1.000000000000000E+000	11	1.2938155E-001	2.1229957E-003	4.949448482592642E-005	0.0000000E+000	-1.0007990E+002	1.6083842E-002	3.2494068E-003	1.6408797E-002	1.1421685E+001	-4.338107109069835E-007
1.2590932E+004	5.9868675E+001	1.3391706E+001	6.1348156E+001	-1.2608633E+001	2.411447925199172E+001	1.1467565E-002	2.0163392E-003	9.4390082E-001	4.4977486E-002	1.000000000000000E+000	11	1.3389449E-001	2.1825349E-003	5.167991039170495E-005	0.0000000E+000	-1.0010395E+002	1.5907306E-002	3.5582208E-003	1.6300408E-002	1.2608633E+001	2.185425565778533E-006
1.1217711E+004	6.0020767E+001	1.4882175E+001	6.1838268E+001	-1.3925667E+001	2.457349130048533E+001	1.1474274E-002	2.1240707E-003	9.5334363E-001	5.5216350E-002	1.000000000000000E+000	11	1.3778205E-001	2.2281033E-003	5.081062890845997E-005	0.0000000E+000	-1.0014404E+002	1.5695926E-002	3.8918115E-003	1.6171217E-002	1.3925667E+001	-8.692814832449782E-007
1.0002229E+004	6.0191280E+001	1.6531624E+001	6.2420227E+001	-1.5357685E+001	2.516847194210277E+001	1.1476660E-002	2.0882797E-003	9.6251565E-001	6.7513116E-002	1.000000000000000E+000	11	1.2929362E-001	2.0713417E-003	5.373172443056763E-005	0.0000000E+000	-1.0010395E+002	1.5448379E-002	4.2429203E-003	1.6020449E-002	1.5357685E+001	2.921095522107661E-006
8.9149297E+003	6.0397831E+001	1.8373665E+001	6.3130733E+001	-1.6920321E+001	2.565091017834493E+001	1.1488308E-002	2.2107384E-003	9.7164232E-001	8.2303122E-002	1.000000000000000E+000	11	1.3172102E-001	2.0864801E-003	5.266749297377990E-005	0.0000000E+000	-1.0006387E+002	1.5154432E-002	4.6101399E-003	1.5840145E-002	1.6920321E+001	-1.064231456787739E-006
7.9439976E+003	6.0633106E+001	2.0430729E+001	6.3982719E+001	-1.8621588E+001	2.617699287002324E+001	1.1499398E-002	2.3126919E-003	9.8061186E-001	9.9986069E-002	1.000000000000000E+000	11	1.3363808E-001	2.0886590E-003	5.500016963810453E-005	0.0000000E+000	-1.0007990E+002	1.4811003E-002	4.9906662E-003	1.5629221E-002	1.8621588E+001	2.332676664324634E-006
7.0822334E+003	6.0905434E+001	2.2704962E+001	6.4999901E+001	-2.0444973E+001	2.675386153740692E+001	1.1507561E-002	2.4711203E-003	9.8975825E-001	1.2076617E-001	1.000000000000000E+000	11	1.3509834E-001	2.0784391E-003	5.558627658232581E-005	0.0000000E+000	-1.0006387E+002	1.4415531E-002	5.3739720E-003	1.5384639E-002	2.0444973E+001	5.861069442212780E-007
6.3077344E+003	6.1214844E+001	2.5251648E+001	6.6218597E+001	-2.2416569E+001	2.738855183418491E+001	1.1514160E-002	2.2890219E-003	9.9921048E-001	1.4530364E-001	1.000000000000000E+000	11	1.3616176E-001	2.0562466E-003	5.495255457875060E-005	0.0000000E+000	-1.0009594E+002	1.3960365E-002	5.7587707E-003	1.5101498E-002	2.2416569E+001	-6.337220035752047E-007
5.6210552E+003	6.1568974E+001	2.8069366E+001	6.7665558E+001	-2.4508299E+001	2.808924696079339E+001	1.1516061E-002	2.3883635E-003	1.0087178E+000	1.7357995E-001	1.000000000000000E+000	11	1.3687600E-001	2.0228312E-003	5.611028281840521E-005	0.0000000E+000	-1.0007188E+002	1.3447036E-002	6.1305198E-003	1.4778567E-002	2.4508299E+001	1.157728239654610E-006
5.0116035E+003	6.1967037E+001	3.1179951E+001	6.9369324E+001	-2.6710167E+001	2.884966545031057E+001	1.1528288E-002	2.4778254E-003	1.0185163E+000	2.0577088E-001	1.000000000000000E+000	11	1.3729428E-001	1.9791785E-003	5.806327429591652E-005	0.0000000E+000	-1.0007990E+002	1.2877329E-002	6.4794854E-003	1.4415594E-002	2.6710167E+001	1.952991477511309E-006
4.4664292E+003	6.2419769E+001	3.4633854E+001	7.1384392E+001	-2.9023874E+001	2.960968697974022E+001	1.1512613E-002	2.3227553E-003	1.0288661E+000	2.4218875E-001	1.000000000000000E+000	11	1.3746947E-001	1.9257638E-003	6.012642723684742E-005	0.0000000E+000	-1.0010395E+002	1.2249423E-002	6.7966399E-003	1.4008665E-002	2.9023874E+001	2.063152940930899E-006
3.9812742E+003	6.2932144E+001	3.8459354E+001	7.3753487E+001	-3.1430109E+001	3.036970720250247E+001	1.1527412E-002	2.4534136E-003	1.0394319E+000	2.8264084E-001	1.000000000000000E+000	11	1.3745680E-001	1.8637329E-003	6.089220043532421E-005	0.0000000E+000	-1.0007188E+002	1.1569309E-002	7.0702843E-003	1.3558681E-002	3.1430109E+001	7.657731984767854E-007
3.5465955E+003	6.3508125E+001	4.2720741E+001	7.6539818E+001	-3.3927990E+001	3.112993849194027E+001	1.1517832E-002	2.3432565E-003	1.0504363E+000	3.2724455E-001	1.000000000000000E+000	11	1.3728885E-001	1.7936920E-003	6.229874648204875E-005	0.0000000E+000	-1.0007188E+002	1.0840628E-002	7.2922898E-003	1.3065095E-002	3.3927990E+001	1.406546046724540E-006
3.1610112E+003	6.4152718E+001	4.7420719E+001	7.9776535E+001	-3.6471252E+001	3.188968980803475E+001	1.1521559E-002	2.4275030E-003	1.0617591E+000	3.7515602E-001	1.000000000000000E+000	11	1.3701248E-001	1.7174535E-003	6.324590338009228E-005	0.0000000E+000	-1.0008792E+002	1.0080097E-002	7.4510556E-003	1.2535014E-002	3.6471252E+001	9.471568980435376E-007
2.8172952E+003	6.4864067E+001	5.2629372E+001	8.3529625E+001	-3.9055164E+001	3.264995523079415E+001	1.1528176E-002	2.4122174E-003	1.0733950E+000	4.2612293E-001	1.000000000000000E+000	11	1.3665758E-001	1.6360373E-003	6.323970216210648E-005	0.0000000E+000	-1.0007990E+002	9.2965784E-003	7.5430525E-003	1.1971801E-002	3.9055164E+001	-6.201217985808824E-009
2.5108032E+003	6.5648392E+001	5.8395832E+001	8.7862305E+001	-4.1653866E+001	3.340970974689844E+001	1.1534252E-002	2.5728813E-003	1.0854894E+000	4.7949505E-001	1.000000000000000E+000	11	1.3624752E-001	1.5506936E-003	6.255320180046449E-005	0.0000000E+000	-1.0003982E+002	8.5039157E-003	7.5644380E-003	1.1381445E-002	4.1653866E+001	-6.865003616419850E-007
2.2378516E+003	6.6513474E+001	6.4778801E+001	9.2845764E+001	-4.4243034E+001	3.416994394297944E+001	1.1524988E-002	2.3909649E-003	1.0978827E+000	5.3443831E-001	1.000000000000000E+000	11	1.3582572E-001	1.4629178E-003	6.296429774787975E-005	0.0000000E+000	-1.0008792E+002	7.7158804E-003	7.5146495E-003	1.0770551E-002	4.4243034E+001	4.110959474152621E-007
1.9956389E+003	6.7450378E+001	7.1822266E+001	9.8529137E+001	-4.6797974E+001	3.492966827242344E+001	1.1519061E-002	2.2150124E-003	1.1103990E+000	5.9002161E-001	1.000000000000000E+000	11	1.3539839E-001	1.3741964E-003	6.337628717184351E-005	0.0000000E+000	-1.0004784E+002	6.9479235E-003	7.3982626E-003	1.0149282E-002	4.6797974E+001	4.119894239637599E-007
1.7782927E+003	6.8467384E+001	7.9688164E+001	1.0506182E+002	-4.9331112E+001	3.568993209517794E+001	1.1516918E-002	2.3518153E-003	1.1231120E+000	6.4613140E-001	1.000000000000000E+000	11	1.3498467E-001	1.2848119E-003	6.492554673702560E-005	0.0000000E+000	-1.0004784E+002	6.2028873E-003	7.2194473E-003	9.5182052E-003	4.9331112E+001	1.549259565182087E-006
1.5855076E+003	6.9566673E+001	8.8365166E+001	1.1246299E+002	-5.1787933E+001	3.644968058462109E+001	1.1520571E-002	2.4077252E-003	1.1359801E+000	7.0131582E-001	1.000000000000000E+000	11	1.3459325E-001	1.1967781E-003	6.501500711657313E-005	0.0000000E+000	-1.0009594E+002	5.5002440E-003	6.9865356E-003	8.8918144E-003	5.1787933E+001	8.946037954753237E-008
1.4118373E+003	7.0754532E+001	9.8118660E+001	1.2096890E+002	-5.4204178E+001	3.721021446070517E+001	1.1521969E-002	2.3749189E-003	1.1489043E+000	7.5585699E-001	1.000000000000000E+000	11	1.3422613E-001	1.1095920E-003	6.504082347271550E-005	0.0000000E+000	-1.0003982E+002	4.8351148E-003	6.7050830E-003	8.2665877E-003	5.4204178E+001	2.581635614236789E-008
1.2587914E+003	7.2009346E+001	1.0884083E+002	1.3050545E+002	-5.6511284E+001	3.796995348346536E+001	1.1522342E-002	2.3421124E-003	1.1616479E+000	8.0798060E-001	1.000000000000000E+000	11	1.3390207E-001	1.0260267E-003	6.628161119680994E-005	0.0000000E+000	-1.0003982E+002	4.2279675E-003	6.3904957E-003	7.6625156E-003	5.6511284E+001	1.240787724094444E-006
1.1217948E+003	7.3362114E+001	1.2081973E+002	1.4134853E+002	-5.8733746E+001	3.872842479948304E+001	1.1516135E-002	2.3723093E-003	1.1742724E+000	8.5794997E-001	1.000000000000000E+000	11	1.3361052E-001	9.4525586E-004	6.613487590354311E-005	0.0000000E+000	-1.0007188E+002	3.6718869E-003	6.0472135E-003	7.0747114E-003	5.8733746E+001	-1.467352932668338E-007
1.0003201E+003	7.4792854E+001	1.3407072E+002	1.5352176E+002	-6.0844547E+001	3.948768070225196E+001	1.1517701E-002	2.2049327E-003	1.1867170E+000	9.0505552E-001	1.000000000000000E+000	11	1.3335112E-001	8.6861383E-004	6.622252804373663E-005	0.0000000E+000	-1.0007990E+002	3.1733667E-003	5.6884517E-003	6.5137348E-003	6.0844547E+001	8.765214019351871E-008
8.9142657E+002	7.6325142E+001	1.4892511E+002	1.6734460E+002	-6.2864548E+001	4.024641463157604E+001	1.1525474E-002	2.3393156E-003	1.1988548E+000	9.4946516E-001	1.000000000000000E+000	11	1.3312952E-001	7.9554116E-004	6.644318620438571E-005	0.0000000E+000	-1.0005585E+002	2.7254876E-003	5.3179529E-003	5.9756930E-003	6.2864548E+001	2.206581606490764E-007
7.9423773E+002	7.7964569E+001	1.6551988E+002	1.8296259E+002	-6.4778229E+001	4.100592621436226E+001	1.1515800E-002	2.3150828E-003	1.2106524E+000	9.9082100E-001	1.000000000000000E+000	11	1.3294038E-001	7.2659872E-004	6.691754788493078E-005	0.0000000E+000	-1.0007990E+002	2.3290175E-003	4.9445364E-003	5.4655983E-003	6.4778229E+001	4.743616805450741E-007
7.0750946E+002	7.9732689E+001	1.8409883E+002	2.0062323E+002	-6.6582703E+001	4.176847731720773E+001	1.1527561E-002	2.4341824E-003	1.2219033E+000	1.0289078E+000	1.000000000000000E+000	11	1.3279024E-001	6.6188863E-004	6.748679619439969E-005	0.0000000E+000	-1.0009594E+002	1.9809518E-003	4.5739203E-003	4.9844678E-003	6.6582703E+001	5.692483094689075E-007
6.3100964E+002	8.1576454E+001	2.0454288E+002	2.2021014E+002	-6.8256737E+001	4.252643471318879E+001	1.1522845E-002	2.3983915E-003	1.2331042E+000	1.0638829E+000	1.000000000000000E+000	11	1.3264298E-001	6.0234731E-004	6.810296218057758E-005	0.0000000E+000	-1.0008792E+002	1.6822487E-003	4.2180303E-003	4.5411168E-003	6.8256737E+001	6.161659861778958E-007
5.6233929E+002	8.3593300E+001	2.2755804E+002	2.4242628E+002	-6.9829224E+001	4.328290384251159E+001	1.1523199E-002	2.3777019E-003	1.2437397E+000	1.0958585E+000	1.000000000000000E+000	11	1.3252756E-001	5.4667157E-004	6.907413173605003E-005	0.0000000E+000	-1.0006387E+002	1.4223683E-003	3.8719769E-003	4.1249651E-003	6.9829224E+001	9.711695554724469E-007
5.0144415E+002	8.5783699E+001	2.5311758E+002	2.6725897E+002	-7.1278046E+001	4.404018518512021E+001	1.1524746E-002	2.3484370E-003	1.2539356E+000	1.1247481E+000	1.000000000000000E+000	11	1.3243505E-001	4.9553078E-004	6.924935901846039E-005	0.0000000E+000	-1.0009594E+002	1.2009921E-003	3.5437066E-003	3.7416893E-003	7.1278046E+001	1.752272824103579E-007
4.4685895E+002	8.8124840E+001	2.8187280E+002	2.9532739E+002	-7.2638649E+001	4.504689736629371E+001	1.1519304E-002	1.7290206E-004	1.2635618E+000	1.1510532E+000	1.000000000000000E+000	12	1.3552326E-001	4.5889162E-004	6.957769770863685E-005	0.0000000E+000	-1.0003982E+002	1.0103941E-003	3.2318092E-003	3.3860726E-003	7.2638649E+001	3.283386901764643E-007
3.9808920E+002	9.0723228E+001	3.1404660E+002	3.2688831E+002	-7.3886810E+001	4.580973252252443E+001	1.1513769E-002	1.7305031E-004	1.2730504E+000	1.1749923E+000	1.000000000000000E+000	12	1.3484475E-001	4.1251016E-004	6.984489473276255E-005	0.0000000E+000	-1.0008792E+002	8.4902334E-004	2.9389709E-003	3.0591488E-003	7.3886810E+001	2.671970241256954E-007
3.5465955E+002	9.3551834E+001	3.5002176E+002	3.6230814E+002	-7.5036079E+001	4.656993685197085E+001	1.1519994E-002	1.5746339E-004	1.2820750E+000	1.1965954E+000	1.000000000000000E+000	12	1.3430166E-001	3.7068353E-004	6.975723616649177E-005	0.0000000E+000	-1.0011197E+002	7.1268273E-004	2.6664834E-003	2.7600816E-003	7.5036079E+001	-8.765856627077258E-008
3.1631586E+002	9.6665009E+001	3.8980463E+002	4.0161148E+002	-7.6072563E+001	4.732691846124362E+001	1.1515222E-002	1.5388307E-004	1.2907798E+000	1.2160009E+000	1.000000000000000E+000	12	1.3385832E-001	3.3330303E-004	6.998648683900279E-005	0.0000000E+000	-1.0005585E+002	5.9931766E-004	2.4167669E-003	2.4899687E-003	7.6072563E+001	2.292506725110153E-007
2.8189429E+002	1.0014026E+002	4.3453262E+002	4.4592227E+002	-7.7022469E+001	4.808242095043533E+001	1.1519099E-002	1.6982295E-004	1.2993060E+000	1.2337805E+000	1.000000000000000E+000	12	1.3349856E-001	2.9937632E-004	6.977444114624045E-005	0.0000000E+000	-1.0007188E+002	5.0360558E-004	2.1852646E-003	2.2425433E-003	7.7022469E+001	-2.120456927623356E-007
2.5104436E+002	1.0399504E+002	4.8481415E+002	4.9584244E+002	-7.7893234E+001	4.883890703972429E+001	1.1517831E-002	1.6413520E-004	1.3076586E+000	1.2501369E+000	1.000000000000000E+000	12	1.3320556E-001	2.6864494E-004	6.963608045364689E-005	0.0000000E+000	-1.0009594E+002	4.2298523E-004	1.9719137E-003	2.0167697E-003	7.7893234E+001	-1.383606925935680E-007
2.2392513E+002	1.0830434E+002	5.4021704E+002	5.5096667E+002	-7.8663460E+001	4.960169886264339E+001	1.1519006E-002	1.5522145E-004	1.3156763E+000	1.2648381E+000	1.000000000000000E+000	12	1.3297564E-001	2.4134968E-004	6.955799451809434E-005	0.0000000E+000	-1.0009594E+002	3.5677565E-004	1.7795804E-003	1.8149918E-003	7.8663460E+001	-7.808593555254633E-008
1.9955299E+002	1.1304356E+002	6.0255420E+002	6.1306641E+002	-7.9374405E+001	5.036320172544220E+001	1.1517775E-002	1.7563671E-004	1.3236275E+000	1.2786243E+000	1.000000000000000E+000	12	1.3278385E-001	2.1658966E-004	6.982702246091584E-005	0.0000000E+000	-1.0009594E+002	3.0076745E-004	1.6031755E-003	1.6311447E-003	7.9374405E+001	2.690279428214985E-007
1.7778128E+002	1.1843129E+002	6.7231500E+002	6.8266644E+002	-8.0009590E+001	5.113123826860101E+001	1.1517403E-002	1.8221798E-004	1.3315618E+000	1.2914863E+000	1.000000000000000E+000	12	1.3263236E-001	1.9428575E-004	7.006751067191402E-005	0.0000000E+000	-1.0004784E+002	2.5412606E-004	1.4426325E-003	1.4648442E-003	8.0009590E+001	2.404882109981833E-007
1.5842838E+002	1.2450217E+002	7.5009058E+002	7.6035297E+002	-8.0575806E+001	5.189774443836359E+001	1.1519080E-002	1.5870744E-004	1.3392864E+000	1.3033780E+000	1.000000000000000E+000	12	1.3250637E-001	1.7426955E-004	6.996663799879954E-005	0.0000000E+000	-1.0006387E+002	2.1535071E-004	1.2974279E-003	1.3151787E-003	8.0575806E+001	-1.008726731144787E-007
1.4131134E+002	1.3124913E+002	8.3628174E+002	8.4651843E+002	-8.1080544E+001	5.265089538079337E+001	1.1517421E-002	1.6713423E-004	1.3467609E+000	1.3143859E+000	1.000000000000000E+000	12	1.3241225E-001	1.5641982E-004	7.012854992449017E-005	0.0000000E+000	-1.0007188E+002	1.8315711E-004	1.1670240E-003	1.1813092E-003	8.1080544E+001	1.619119256906284E-007
1.2584569E+002	1.3908026E+002	9.3357239E+002	9.4387537E+002	-8.1526596E+001	5.340641928333207E+001	1.1521950E-002	1.5809092E-004	1.3546708E+000	1.3252581E+000	1.000000000000000E+000	12	1.3233191E-001	1.4020062E-004	7.006953280257201E-005	0.0000000E+000	-1.0006387E+002	1.5611204E-004	1.0478973E-003	1.0594620E-003	8.1526596E+001	-5.901712191816206E-008
1.1218996E+002	1.4754486E+002	1.0413402E+003	1.0517408E+003	-8.1935585E+001	5.415185702542658E+001	1.1513825E-002	1.6567788E-004	1.3623024E+000	1.3354920E+000	1.000000000000000E+000	12	1.3227206E-001	1.2576488E-004	7.002529677986705E-005	0.0000000E+000	-1.0007990E+002	1.3338488E-004	9.4140205E-004	9.5080456E-004	8.1935585E+001	-4.423602270496260E-008
1.0003201E+002	1.5728429E+002	1.1613721E+003	1.1719741E+003	-8.2287376E+001	5.491169994152006E+001	1.1512185E-002	1.6690807E-004	1.3699659E+000	1.3452917E+000	1.000000000000000E+000	12	1.3221937E-001	1.1281765E-004	7.011534604359642E-005	0.0000000E+000	-1.0007188E+002	1.1451150E-004	8.4554224E-004	8.5326115E-004	8.2287376E+001	9.004926372937463E-008
8.9115974E+001	1.6844006E+002	1.2962739E+003	1.3071718E+003	-8.2596375E+001	5.567875179128896E+001	1.1523255E-002	1.6193016E-004	1.3777417E+000	1.3548651E+000	1.000000000000000E+000	12	1.3218300E-001	1.0112137E-004	7.023898619572922E-005	0.0000000E+000	-1.0007990E+002	9.8577977E-005	7.5863255E-004	7.6501042E-004	8.2596375E+001	1.236401521327986E-007
7.9415527E+001	1.8108641E+002	1.4463988E+003	1.4576906E+003	-8.2863808E+001	5.644222649416770E+001	1.1516509E-002	1.5184360E-004	1.3855642E+000	1.3641813E+000	1.000000000000000E+000	12	1.3215108E-001	9.0657843E-005	7.020173471152641E-005	0.0000000E+000	-1.0007990E+002	8.5222666E-005	6.8070251E-004	6.8601663E-004	8.2863808E+001	-3.725148420280619E-008