EC-Lab ASCII FILE
Nb header lines : 75                          

Potentio Electrochemical Impedance Spectroscopy

Run on channel : 2 (SN 20919)
User : 
CE vs. WE compliance from -10 V to 10 V
Electrode connection : standard
Ewe ctrl range : min = -10.00 V, max = 10.00 V
Safety Limits :
	Do not start on E overload
Acquisition started on : 01/24/2020 09:53:32
Technique started on : 01/24/2020 09:53:33
Saved on :
	File : DE_40_10_60.mpr
	Directory : P:\Chemistry\Data\VMP3\Kyler\DOE\DE_40\2ND 60C\
	Host : 10.0.4.99
Device : VMP3 (SN 0183)
Address : USB
EC-Lab for windows v11.33 (software)
Internet server v11.32 (firmware)
Command interpretor v11.33 (firmware)
Electrode material : 
Initial state : 
Electrolyte : 
Comments : 
Electrode surface area : 0.001 cm²
Characteristic mass : 0.001 g
Equivalent Weight : 0.000 g/eq.
Density : 0.000 g/cm3
Record Analogic IN 1
Cycle Definition : Charge/Discharge alternance
External device configuration :
   device type : Thermostat
   device name : Other
   Analog OUT : 
      mode : E/V
      unit : T/°C
      max : 400.000 at 5.000 V
      min : -100.000 at 0.000 V
      current : 0.000
   Analog IN 1 : 
      unit : T/°C
      max : 400.000 at 5.000 V
      min : -100.000 at 0.000 V
Mode                Single sine         
E (V)               0.0000              
vs.                 Eoc                 
tE (h:m:s)          0:00:0.0000         
record              0                   
dI                  1.000               
unit dI             mA                  
dt (s)              0.000               
fi                  1.000               
unit fi             MHz                 
ff                  1.000               
unit ff             Hz                  
Nd                  20                  
Points              per decade          
spacing             Logarithmic         
Va (mV)             128.0               
pw                  0.50                
Na                  3                   
corr                0                   
E range min (V)     -10.000             
E range max (V)     10.000              
I Range             Auto                
Bandwidth           5                   
nc cycles           0                   
goto Ns'            0                   
nr cycles           0                   
inc. cycle          1                   

freq/Hz	Re(Z)/Ohm	-Im(Z)/Ohm	|Z|/Ohm	Phase(Z)/deg	time/s	<Ewe>/V	<I>/mA	Cs/µF	Cp/µF	cycle number	I Range	|Ewe|/V	|I|/A	(Q-Qo)/mA.h	Analog OUT/V	Analog IN 1/V	Re(Y)/Ohm-1	Im(Y)/Ohm-1	|Y|/Ohm-1	Phase(Y)/deg	dq/mA.h	
1.0000186E+006	7.2032875E+001	3.5919167E+001	8.0491745E+001	-2.6503122E+001	1.746479176246794E+000	5.7257403E-002	1.7362619E-003	4.4308375E-003	8.8233931E-004	1.000000000000000E+000	11	1.2938897E-003	1.6074813E-005	3.110761882101845E-007	0.0000000E+000	-1.0009383E+002	1.1118036E-002	5.5440045E-003	1.2423635E-002	2.6503122E+001	3.110761882101845E-007
8.9124669E+005	7.4949532E+001	3.3822884E+001	8.2227852E+001	-2.4288488E+001	2.342476617923239E+000	5.7685047E-002	1.7892288E-003	5.2797282E-003	8.9329510E-004	1.000000000000000E+000	11	2.2286908E-003	2.7103843E-005	5.140385307256818E-007	0.0000000E+000	-1.0010986E+002	1.1084881E-002	5.0023347E-003	1.2161329E-002	2.4288488E+001	2.029623425154972E-007
7.9433269E+005	7.8788605E+001	3.2230392E+001	8.5126038E+001	-2.2248207E+001	2.937482939480105E+000	5.8035396E-002	1.8399653E-003	6.2165880E-003	8.9116569E-004	1.000000000000000E+000	11	3.6272730E-003	4.2610616E-005	7.278693243297311E-007	0.0000000E+000	-1.0005373E+002	1.0872729E-002	4.4477535E-003	1.1747287E-002	2.2248207E+001	2.138307936040493E-007
7.0794981E+005	8.2770844E+001	3.0846251E+001	8.8331779E+001	-2.0438940E+001	3.532480087742442E+000	5.8320273E-002	1.7067143E-003	7.2881160E-003	8.8876323E-004	1.000000000000000E+000	11	5.6113326E-003	6.3525637E-005	9.029738138633547E-007	0.0000000E+000	-1.0010986E+002	1.0608242E-002	3.9533786E-003	1.1320954E-002	2.0438940E+001	1.751044895336236E-007
6.3095681E+005	8.6526115E+001	2.9641813E+001	9.1462593E+001	-1.8910255E+001	4.128491396055324E+000	5.8584776E-002	1.7502030E-003	8.5097291E-003	8.9379569E-004	1.000000000000000E+000	11	8.2375659E-003	9.0064859E-005	1.318169256502491E-006	0.0000000E+000	-1.0007779E+002	1.0343325E-002	3.5433804E-003	1.0933432E-002	1.8910255E+001	4.151954426391362E-007
5.6234225E+005	8.9983902E+001	2.8348801E+001	9.4343826E+001	-1.7486670E+001	4.724487371015130E+000	5.8776531E-002	1.7368228E-003	9.9835442E-003	9.0141990E-004	1.000000000000000E+000	11	1.1547037E-002	1.2239315E-004	1.841555565875347E-006	0.0000000E+000	-1.0009383E+002	1.0109690E-002	3.1849875E-003	1.0599528E-002	1.7486670E+001	5.233863093728562E-007
5.0120619E+005	9.3120384E+001	2.7055962E+001	9.6971291E+001	-1.6201128E+001	5.321472946059657E+000	5.8946162E-002	1.8680319E-003	1.1736558E-002	9.1365102E-004	1.000000000000000E+000	11	1.5545047E-002	1.6030566E-004	2.174673846660880E-006	0.0000000E+000	-1.0007779E+002	9.9028097E-003	2.8772436E-003	1.0312331E-002	1.6201128E+001	3.331182807855333E-007
4.4668572E+005	9.5852226E+001	2.5682705E+001	9.9233315E+001	-1.4999541E+001	5.917492281034356E+000	5.9055891E-002	1.7362678E-003	1.3873221E-002	9.2927407E-004	1.000000000000000E+000	11	2.0262713E-002	2.0419263E-004	2.920858529781172E-006	0.0000000E+000	-1.0009383E+002	9.7339069E-003	2.6081090E-003	1.0077260E-002	1.4999541E+001	7.461846831202920E-007
3.9810347E+005	9.8285133E+001	2.4167429E+001	1.0121281E+002	-1.3814450E+001	6.512488842621678E+000	5.9112530E-002	1.8042887E-003	1.6542219E-002	9.4315637E-004	1.000000000000000E+000	11	2.5730131E-002	2.5421815E-004	3.545387324873850E-006	0.0000000E+000	-1.0010986E+002	9.5943799E-003	2.3591716E-003	9.8801730E-003	1.3814450E+001	6.245287950926773E-007
3.5480997E+005	1.0031149E+002	2.2664364E+001	1.0284002E+002	-1.2731628E+001	7.108489777630894E+000	5.9123062E-002	1.8750979E-003	1.9791594E-002	9.6126593E-004	1.000000000000000E+000	11	3.1954110E-002	3.1071668E-004	4.060936607666210E-006	0.0000000E+000	-1.0004572E+002	9.4847614E-003	2.1429856E-003	9.7238412E-003	1.2731628E+001	5.155492827923602E-007
3.1622997E+005	1.0206238E+002	2.1120644E+001	1.0422481E+002	-1.1691679E+001	7.703489699197235E+000	5.9107251E-002	1.8390444E-003	2.3829227E-002	9.7854785E-004	1.000000000000000E+000	11	3.9015647E-002	3.7434127E-004	3.554868325009011E-006	0.0000000E+000	-1.0011788E+002	9.3955770E-003	1.9443075E-003	9.5946444E-003	1.1691679E+001	-5.060682826571994E-007
2.8183453E+005	1.0354402E+002	1.9607740E+001	1.0538419E+002	-1.0722916E+001	8.299484580842545E+000	5.9079923E-002	1.6831218E-003	2.8800391E-002	9.9701690E-004	1.000000000000000E+000	11	4.6982557E-002	4.4582167E-004	4.467963721583752E-006	0.0000000E+000	-1.0011788E+002	9.3233949E-003	1.7655361E-003	9.4890893E-003	1.0722916E+001	9.130953965747419E-007
2.5118764E+005	1.0473728E+002	1.8178749E+001	1.0630318E+002	-9.8464622E+000	8.894490049133310E+000	5.9077535E-002	1.7372044E-003	3.4854420E-002	1.0192797E-003	1.000000000000000E+000	11	5.5882495E-002	5.2568980E-004	5.468151257321652E-006	0.0000000E+000	-1.0009383E+002	9.2684859E-003	1.6086869E-003	9.4070565E-003	9.8464622E+000	1.000187535737900E-006
2.2387173E+005	1.0571764E+002	1.6812042E+001	1.0704609E+002	-9.0359554E+000	9.490474877384258E+000	5.9069462E-002	1.5314749E-003	4.2286370E-002	1.0430370E-003	1.000000000000000E+000	11	6.5758251E-002	6.1429851E-004	5.971017562292723E-006	0.0000000E+000	-1.0014193E+002	9.2258388E-003	1.4671648E-003	9.3417708E-003	9.0359554E+000	5.028663049710704E-007
1.9954350E+005	1.0652969E+002	1.5563735E+001	1.0766061E+002	-8.3119717E+000	1.008747450579540E+001	5.9073117E-002	1.6258894E-003	5.1247034E-002	1.0709834E-003	1.000000000000000E+000	11	7.6540522E-002	7.1094272E-004	6.335302801013717E-006	0.0000000E+000	-1.0006175E+002	9.1908798E-003	1.3427656E-003	9.2884488E-003	8.3119717E+000	3.642852387209945E-007
1.7783180E+005	1.0718938E+002	1.4447442E+001	1.0815865E+002	-7.6763077E+000	1.068247965400224E+001	5.9074350E-002	1.5666082E-003	6.1946929E-002	1.1052975E-003	1.000000000000000E+000	11	8.8218518E-002	8.1563997E-004	7.046928152978782E-006	0.0000000E+000	-1.0013391E+002	9.1628227E-003	1.2350043E-003	9.2456779E-003	7.6763077E+000	7.116253519650647E-007
1.5848613E+005	1.0772086E+002	1.3444086E+001	1.0855656E+002	-7.1140065E+000	1.127848109565093E+001	5.9086412E-002	1.5019350E-003	7.4696049E-002	1.1456396E-003	1.000000000000000E+000	11	1.0073540E-001	9.2795305E-004	8.330423230515509E-006	0.0000000E+000	-1.0007779E+002	9.1408715E-003	1.1408251E-003	9.2117870E-003	7.1140065E+000	1.283495077536727E-006
1.4125594E+005	1.0814848E+002	1.2579491E+001	1.0887763E+002	-6.6346502E+000	1.187447592397803E+001	5.9112083E-002	1.7295979E-003	8.9567482E-002	1.1956365E-003	1.000000000000000E+000	11	1.1411732E-001	1.0481246E-003	7.832729587907023E-006	0.0000000E+000	-1.0006977E+002	9.1231139E-003	1.0611719E-003	9.1846231E-003	6.6346502E+000	-4.976936426084855E-007
1.2590930E+005	1.0851189E+002	1.1839191E+001	1.0915583E+002	-6.2266283E+000	1.233448159918771E+001	5.9096217E-002	1.5634521E-003	1.0676780E-001	1.2560025E-003	1.000000000000000E+000	11	1.2849055E-001	1.1771296E-003	7.439323779564196E-006	0.0000000E+000	-1.0010986E+002	9.1071697E-003	9.9363795E-004	9.1612143E-003	6.2266283E+000	-3.934058083428275E-007
1.1220494E+005	1.0879823E+002	1.1222401E+001	1.0937548E+002	-5.8891606E+000	1.293048656082829E+001	5.9114616E-002	1.3540034E-003	1.2639281E-001	1.3306198E-003	1.000000000000000E+000	11	1.2912115E-001	1.1805311E-003	7.454253147000498E-006	0.0000000E+000	-1.0010986E+002	9.0945633E-003	9.3809282E-004	9.1428170E-003	5.8891606E+000	1.492936743630240E-008
1.0000371E+005	1.0903690E+002	1.0726771E+001	1.0956327E+002	-5.6185327E+000	1.352648365576169E+001	5.9190866E-002	1.7130590E-003	1.4836620E-001	1.4221423E-003	1.000000000000000E+000	11	1.2970676E-001	1.1838526E-003	6.149043298817964E-006	0.0000000E+000	-1.0005373E+002	9.0832980E-003	8.9359150E-004	9.1271466E-003	5.6185327E+000	-1.305209848182535E-006
8.9129305E+004	1.0922330E+002	1.0348117E+001	1.0971242E+002	-5.4122047E+000	1.412149064402911E+001	5.9229493E-002	1.7370338E-003	1.7255928E-001	1.5351449E-003	1.000000000000000E+000	11	1.2963422E-001	1.1815820E-003	4.978109775169287E-006	0.0000000E+000	-1.0006175E+002	9.0741040E-003	8.5970561E-004	9.1147386E-003	5.4122047E+000	-1.170933523648677E-006
7.9433273E+004	1.0938328E+002	1.0090630E+001	1.0984772E+002	-5.2706299E+000	1.471747725902242E+001	5.9233353E-002	1.5136456E-003	1.9856350E-001	1.6755362E-003	1.000000000000000E+000	11	1.2957609E-001	1.1795973E-003	6.691965526661887E-006	0.0000000E+000	-1.0001364E+002	9.0650208E-003	8.3625002E-004	9.1035115E-003	5.2706299E+000	1.713855751492600E-006
7.0794977E+004	1.0950996E+002	9.9505882E+000	1.0996111E+002	-5.1919060E+000	1.531349531401065E+001	5.9290957E-002	1.8630368E-003	2.2592741E-001	1.8500703E-003	1.000000000000000E+000	11	1.2955859E-001	1.1782220E-003	8.816090285778045E-006	0.0000000E+000	-1.0005373E+002	9.0568131E-003	8.2294457E-004	9.0941247E-003	5.1919060E+000	2.124124759116158E-006
6.3093828E+004	1.0961531E+002	9.9216375E+000	1.1006342E+002	-5.1719337E+000	1.590947107560351E+001	5.9299514E-002	1.7821935E-003	2.5424352E-001	2.0660015E-003	1.000000000000000E+000	11	1.2940499E-001	1.1757312E-003	8.309445710839807E-006	0.0000000E+000	-1.0010986E+002	9.0486808E-003	8.1902539E-004	9.0856710E-003	5.1719337E+000	-5.066445749382377E-007
5.6237012E+004	1.0971016E+002	1.0010855E+001	1.1016595E+002	-5.2136989E+000	1.650649281064398E+001	5.9315994E-002	1.8702836E-003	2.8270060E-001	2.3343950E-003	1.000000000000000E+000	11	1.2937215E-001	1.1743389E-003	1.117668839459980E-005	0.0000000E+000	-1.0013391E+002	9.0396600E-003	8.2485279E-004	9.0772156E-003	5.2136989E+000	2.867242683759995E-006
5.0122477E+004	1.0979318E+002	1.0217803E+001	1.1026762E+002	-5.3168650E+000	1.710147990557016E+001	5.9329845E-002	1.8046800E-003	3.1076357E-001	2.6683891E-003	1.000000000000000E+000	11	1.2928684E-001	1.1724824E-003	1.106442765559122E-005	0.0000000E+000	-1.0010986E+002	9.0298271E-003	8.4035256E-004	9.0688458E-003	5.3168650E+000	-1.122607390085870E-007
4.4666715E+004	1.0986848E+002	1.0554379E+001	1.1037426E+002	-5.4872103E+000	1.756047539404244E+001	5.9335645E-002	1.8431568E-003	3.3760080E-001	3.0869753E-003	1.000000000000000E+000	11	1.4010176E-001	1.2693336E-003	1.156422498363018E-005	0.0000000E+000	-1.0007779E+002	9.0185655E-003	8.6635735E-004	9.0600830E-003	5.4872103E+000	4.997973280389689E-007
3.9814063E+004	1.0993166E+002	1.1011500E+001	1.1048178E+002	-5.7200537E+000	1.815648824904929E+001	5.9375707E-002	1.9187916E-003	3.6302552E-001	3.6061918E-003	1.000000000000000E+000	11	1.3026047E-001	1.1790221E-003	1.116063788074017E-005	0.0000000E+000	-1.0005373E+002	9.0061976E-003	9.0212171E-004	9.0512661E-003	5.7200537E+000	-4.035871028900138E-007
3.5480996E+004	1.1001863E+002	1.1611167E+001	1.1062965E+002	-6.0245910E+000	1.861649680419941E+001	5.9356414E-002	1.8087749E-003	3.8632113E-001	4.2555644E-003	1.000000000000000E+000	11	1.3951942E-001	1.2611395E-003	1.114460994340738E-005	0.0000000E+000	-1.0007779E+002	8.9892447E-003	9.4870856E-004	9.0391682E-003	6.0245910E+000	-1.602793733278860E-008
3.1621143E+004	1.1009379E+002	1.2336452E+001	1.1078281E+002	-6.3935528E+000	1.921248821917106E+001	5.9373677E-002	1.7894414E-003	4.0799260E-001	5.0592734E-003	1.000000000000000E+000	11	1.3001698E-001	1.1736206E-003	1.066390267290667E-005	0.0000000E+000	-1.0006175E+002	8.9705298E-003	1.0051840E-003	9.0266718E-003	6.3935528E+000	-4.807072705007166E-007
2.8188096E+004	1.1017978E+002	1.3211234E+001	1.1096901E+002	-6.8374729E+000	1.967248522772570E+001	5.9376061E-002	1.7847959E-003	4.2737687E-001	6.0575129E-003	1.000000000000000E+000	11	1.3748881E-001	1.2389838E-003	1.109257114540863E-005	0.0000000E+000	-1.0013391E+002	8.9474339E-003	1.0728524E-003	9.0115247E-003	6.8374729E+000	4.286684725019668E-007
2.5116910E+004	1.1027174E+002	1.4245867E+001	1.1118813E+002	-7.3611979E+000	2.026847514932160E+001	5.9387192E-002	1.8204774E-003	4.4480026E-001	7.3017324E-003	1.000000000000000E+000	11	1.2972549E-001	1.1667206E-003	1.070913295154201E-005	0.0000000E+000	-1.0005373E+002	8.9196404E-003	1.1523170E-003	8.9937653E-003	7.3611979E+000	-3.834381938666218E-007
2.2389027E+004	1.1038528E+002	1.5449577E+001	1.1146120E+002	-7.9673901E+000	2.072747317116591E+001	5.9390340E-002	1.7721585E-003	4.6011704E-001	8.8400375E-003	1.000000000000000E+000	11	1.3544938E-001	1.2152155E-003	1.048416711326475E-005	0.0000000E+000	-1.0010986E+002	8.8851294E-003	1.2435670E-003	8.9717321E-003	7.9673901E+000	-2.249658382772588E-007
1.9948783E+004	1.1051241E+002	1.6842531E+001	1.1178848E+002	-8.6654243E+000	2.118748804632924E+001	5.9392337E-002	1.8388806E-003	4.7369233E-001	1.0752686E-002	1.000000000000000E+000	11	1.4060678E-001	1.2577930E-003	9.723878464021254E-006	0.0000000E+000	-1.0002968E+002	8.8433521E-003	1.3477621E-003	8.9454651E-003	8.6654243E+000	-7.602886492434974E-007
1.7786895E+004	1.1064017E+002	1.8425211E+001	1.1216388E+002	-9.4548559E+000	2.178349303462892E+001	5.9400912E-002	1.8448245E-003	4.8563227E-001	1.3104681E-002	1.000000000000000E+000	11	1.2974511E-001	1.1567459E-003	1.209033809490939E-005	0.0000000E+000	-1.0004572E+002	8.7944111E-003	1.4645574E-003	8.9155259E-003	9.4548559E+000	2.366459630888131E-006
1.5847686E+004	1.1081170E+002	2.0236326E+001	1.1264432E+002	-1.0349257E+001	2.224349236316630E+001	5.9399478E-002	1.8264260E-003	4.9627525E-001	1.6016491E-002	1.000000000000000E+000	11	1.3324767E-001	1.1829063E-003	1.186894387038451E-005	0.0000000E+000	-1.0006977E+002	8.7330723E-003	1.5948253E-003	8.8775009E-003	1.0349257E+001	-2.213942245248796E-007
1.4121879E+004	1.1100790E+002	2.2287271E+001	1.1322312E+002	-1.1352455E+001	2.270348326498060E+001	5.9390530E-002	1.7491136E-003	5.0567412E-001	1.9593602E-002	1.000000000000000E+000	11	1.3621426E-001	1.2030604E-003	1.197239596345591E-005	0.0000000E+000	-1.0005373E+002	8.6593172E-003	1.7385480E-003	8.8321185E-003	1.1352455E+001	1.034520930714063E-007
1.2590932E+004	1.1123676E+002	2.4586018E+001	1.1392141E+002	-1.2463382E+001	2.316347115350072E+001	5.9406541E-002	1.7881406E-003	5.1413131E-001	2.3946375E-002	1.000000000000000E+000	11	1.3867772E-001	1.2173104E-003	1.319060804378953E-005	0.0000000E+000	-1.0005373E+002	8.5711209E-003	1.8944255E-003	8.7779816E-003	1.2463382E+001	1.218212080333615E-006
1.1217711E+004	1.1149877E+002	2.7188534E+001	1.1476582E+002	-1.3703911E+001	2.362249005530612E+001	5.9399609E-002	1.7782920E-003	5.2183127E-001	2.9287115E-002	1.000000000000000E+000	11	1.4070693E-001	1.2260352E-003	1.280640843734485E-005	0.0000000E+000	-1.0012590E+002	8.4653515E-003	2.0642425E-003	8.7133963E-003	1.3703911E+001	-3.841996064446797E-007
1.0002229E+004	1.1179182E+002	3.0088051E+001	1.1577003E+002	-1.5063830E+001	2.421949432368274E+001	5.9407827E-002	1.8232648E-003	5.2884603E-001	3.5721116E-002	1.000000000000000E+000	11	1.2941495E-001	1.1178622E-003	1.477675852679466E-005	0.0000000E+000	-1.0009383E+002	8.3409920E-003	2.2449244E-003	8.6378139E-003	1.5063830E+001	1.970350089449817E-006
8.9149297E+003	1.1215671E+002	3.3351730E+001	1.1701054E+002	-1.6560753E+001	2.470189981328440E+001	5.9421308E-002	1.8548586E-003	5.3528345E-001	4.3488119E-002	1.000000000000000E+000	11	1.3058451E-001	1.1160064E-003	1.512890630780991E-005	0.0000000E+000	-1.0014995E+002	8.1917243E-003	2.4359503E-003	8.5462388E-003	1.6560753E+001	3.521477810152432E-007
7.9439976E+003	1.1257022E+002	3.7007679E+001	1.1849735E+002	-1.8198380E+001	2.522799525159644E+001	5.9422407E-002	1.9245512E-003	5.4136378E-001	5.2802633E-002	1.000000000000000E+000	11	1.3148896E-001	1.1096363E-003	1.538757493637321E-005	0.0000000E+000	-1.0011788E+002	8.0168955E-003	2.6355698E-003	8.4390072E-003	1.8198380E+001	2.586686285633047E-007
7.0822334E+003	1.1304929E+002	4.1071133E+001	1.2027876E+002	-1.9966228E+001	2.580487399900449E+001	5.9439447E-002	1.9921998E-003	5.4715860E-001	6.3798234E-002	1.000000000000000E+000	11	1.3215926E-001	1.0987747E-003	1.640776833807144E-005	0.0000000E+000	-1.0007779E+002	7.8142984E-003	2.8389569E-003	8.3140200E-003	1.9966228E+001	1.020193401698228E-006
6.3077344E+003	1.1360346E+002	4.5637375E+001	1.2242760E+002	-2.1886572E+001	2.643952466911287E+001	5.9445653E-002	1.8448232E-003	5.5287391E-001	7.6826088E-002	1.000000000000000E+000	11	1.3264599E-001	1.0834648E-003	1.585174831035288E-005	0.0000000E+000	-1.0006175E+002	7.5793667E-003	3.0448227E-003	8.1680929E-003	2.1886572E+001	-5.560200277185577E-007
5.6210552E+003	1.1425277E+002	5.0708309E+001	1.2500011E+002	-2.3932875E+001	2.714027616908425E+001	5.9450779E-002	1.8626640E-003	5.5837137E-001	9.1888376E-002	1.000000000000000E+000	11	1.3296580E-001	1.0637254E-003	1.682304448651848E-005	0.0000000E+000	-1.0003770E+002	7.3121642E-003	3.2453258E-003	7.9999929E-003	2.3932875E+001	9.712961761656017E-007
5.0116035E+003	1.1499590E+002	5.6320961E+001	1.2804729E+002	-2.6093994E+001	2.790069423190289E+001	5.9458386E-002	1.9252938E-003	5.6386268E-001	1.0908693E-001	1.000000000000000E+000	11	1.3314846E-001	1.0398382E-003	1.733234222830247E-005	0.0000000E+000	-1.0004572E+002	7.0136096E-003	3.4350203E-003	7.8096148E-003	2.6093994E+001	5.092977417839880E-007
4.4664292E+003	1.1586665E+002	6.2566860E+001	1.3168027E+002	-2.8368614E+001	2.866070909466362E+001	5.9437580E-002	1.7175154E-003	5.6952828E-001	1.2857682E-001	1.000000000000000E+000	11	1.3321620E-001	1.0116642E-003	1.836377871248664E-005	0.0000000E+000	-1.0006175E+002	6.6821626E-003	3.6083029E-003	7.5941524E-003	2.8368614E+001	1.031436484184168E-006
3.9812742E+003	1.1686524E+002	6.9505241E+001	1.3597229E+002	-3.0741934E+001	2.942070609076472E+001	5.9443530E-002	1.7933410E-003	5.7514918E-001	1.5028469E-001	1.000000000000000E+000	11	1.3319187E-001	9.7955158E-004	1.804367325365052E-005	0.0000000E+000	-1.0004572E+002	6.3209818E-003	3.7593844E-003	7.3544397E-003	3.0741934E+001	-3.201054588361221E-007
3.5465955E+003	1.1803937E+002	7.7246796E+001	1.4106863E+002	-3.3201359E+001	3.018094572686823E+001	5.9454881E-002	1.8331128E-003	5.8093560E-001	1.7419194E-001	1.000000000000000E+000	11	1.3309866E-001	9.4350288E-004	1.827647782100313E-005	0.0000000E+000	-1.0012590E+002	5.9315190E-003	3.8816782E-003	7.0887478E-003	3.3201359E+001	2.328045673526087E-007
3.1610112E+003	1.1940498E+002	8.5785423E+001	1.4702615E+002	-3.5695011E+001	3.094067685629125E+001	5.9464056E-002	1.9212045E-003	5.8692229E-001	1.9981055E-001	1.000000000000000E+000	11	1.3295445E-001	9.0429111E-004	1.803794578519107E-005	0.0000000E+000	-1.0004572E+002	5.5237408E-003	3.9684810E-003	6.8015112E-003	3.5695011E+001	-2.385320358120604E-007
2.8172952E+003	1.2096725E+002	9.5231514E+001	1.5395493E+002	-3.8211601E+001	3.170092062570620E+001	5.9452534E-002	1.8619192E-003	5.9320807E-001	2.2697671E-001	1.000000000000000E+000	11	1.3277158E-001	8.6240558E-004	1.771390144657441E-005	0.0000000E+000	-1.0007779E+002	5.1036477E-003	4.0178481E-003	6.4954078E-003	3.8211601E+001	-3.240443386166598E-007
2.5108032E+003	1.2277200E+002	1.0570332E+002	1.6200665E+002	-4.0727547E+001	3.246066868848720E+001	5.9464447E-002	2.0206303E-003	5.9967899E-001	2.5528798E-001	1.000000000000000E+000	11	1.3256541E-001	8.1827136E-004	1.810034209555791E-005	0.0000000E+000	-1.0005373E+002	4.6777138E-003	4.0273829E-003	6.1725862E-003	4.0727547E+001	3.864406489835047E-007
2.2378516E+003	1.2483596E+002	1.1726828E+002	1.7127716E+002	-4.3209633E+001	3.322092147124931E+001	5.9445746E-002	1.8533677E-003	6.0646856E-001	2.8429583E-001	1.000000000000000E+000	11	1.3234493E-001	7.7269459E-004	1.905273179244897E-005	0.0000000E+000	-1.0009383E+002	4.2554042E-003	3.9974372E-003	5.8384901E-003	4.3209633E+001	9.523896968910561E-007
1.9956389E+003	1.2717821E+002	1.2997031E+002	1.8184218E+002	-4.5622089E+001	3.398068718735158E+001	5.9450500E-002	1.8463035E-003	6.1361229E-001	3.1346789E-001	1.000000000000000E+000	11	1.3213038E-001	7.2662119E-004	1.883573609263112E-005	0.0000000E+000	-1.0006175E+002	3.8461254E-003	3.9305640E-003	5.4992740E-003	4.5622089E+001	-2.169956998178463E-007
1.7782927E+003	1.2987753E+002	1.4410263E+002	1.9399419E+002	-4.7972137E+001	3.474093645010726E+001	5.9449140E-002	1.8303195E-003	6.2107629E-001	3.4269783E-001	1.000000000000000E+000	11	1.3191348E-001	6.7998678E-004	1.972303625899885E-005	0.0000000E+000	-1.0010986E+002	3.4510926E-003	3.8290804E-003	5.1547936E-003	4.7972137E+001	8.873001663677240E-007
1.5855076E+003	1.3291005E+002	1.5962506E+002	2.0771432E+002	-5.0217918E+001	3.550070997954754E+001	5.9449214E-002	1.8474148E-003	6.2885535E-001	3.7138125E-001	1.000000000000000E+000	11	1.3171773E-001	6.3412922E-004	2.041563480573758E-005	0.0000000E+000	-1.0007779E+002	3.0805261E-003	3.6997143E-003	4.8143044E-003	5.0217918E+001	6.925985467387359E-007
1.4118373E+003	1.3638293E+002	1.7692216E+002	2.2338701E+002	-5.2372662E+001	3.626219009570195E+001	5.9459861E-002	1.8604195E-003	6.3716698E-001	3.9967033E-001	1.000000000000000E+000	11	1.3152835E-001	5.8879139E-004	2.115349392059337E-005	0.0000000E+000	-1.0006977E+002	2.7330287E-003	3.5454095E-003	4.4765361E-003	5.2372662E+001	7.378591148557869E-007
1.2587914E+003	1.4024174E+002	1.9580957E+002	2.4085086E+002	-5.4389194E+001	3.702194877178408E+001	5.9456114E-002	1.8734296E-003	6.4570248E-001	4.2677981E-001	1.000000000000000E+000	11	1.3136455E-001	5.4541865E-004	2.185614571089132E-005	0.0000000E+000	-1.0009383E+002	2.4175802E-003	3.3754953E-003	4.1519469E-003	5.4389194E+001	7.026517902979505E-007
1.1217948E+003	1.4460254E+002	2.1672726E+002	2.6053906E+002	-5.6288399E+001	3.778043091445579E+001	5.9462897E-002	1.9964606E-003	6.5462583E-001	4.5297533E-001	1.000000000000000E+000	11	1.3121417E-001	5.0362572E-004	2.213019831292412E-005	0.0000000E+000	-1.0010986E+002	2.1302484E-003	3.1927719E-003	3.8381962E-003	5.6288399E+001	2.740526020328008E-007
1.0003201E+003	1.4951381E+002	2.3961858E+002	2.8243839E+002	-5.8037243E+001	3.853969980389229E+001	5.9465583E-002	2.0148579E-003	6.6398871E-001	4.7791889E-001	1.000000000000000E+000	11	1.3108438E-001	4.6411672E-004	2.294114695123668E-005	0.0000000E+000	-1.0006175E+002	1.8742775E-003	3.0038140E-003	3.5405953E-003	5.8037243E+001	8.109486383125642E-007
8.9142657E+002	1.5495204E+002	2.6504526E+002	3.0701648E+002	-5.9688381E+001	3.929840975991101E+001	5.9460662E-002	1.9609623E-003	6.7361927E-001	5.0203174E-001	1.000000000000000E+000	11	1.3097036E-001	4.2659065E-004	2.368029620482088E-005	0.0000000E+000	-1.0006977E+002	1.6438946E-003	2.8118792E-003	3.2571543E-003	5.9688381E+001	7.391492535842004E-007
7.9423773E+002	1.6106424E+002	2.9312411E+002	3.3445993E+002	-6.1212326E+001	4.030893802124774E+001	5.9443828E-002	1.5088722E-004	6.8362522E-001	5.2508909E-001	1.000000000000000E+000	12	1.3537979E-001	4.0477133E-004	2.344703003803988E-005	0.0000000E+000	-1.0002968E+002	1.4398291E-003	2.6203746E-003	2.9898947E-003	6.1212326E+001	-2.332661667810011E-007
7.0750946E+002	1.6789136E+002	3.2413138E+002	3.6503241E+002	-6.2617058E+001	4.107147632408305E+001	5.9452664E-002	1.9258591E-004	6.9401175E-001	5.4720002E-001	1.000000000000000E+000	12	1.3450229E-001	3.6846672E-004	2.320080436877712E-005	0.0000000E+000	-1.0007779E+002	1.2599853E-003	2.4325303E-003	2.7394828E-003	6.2617058E+001	-2.462256692627608E-007
6.3100964E+002	1.7546741E+002	3.5792044E+002	3.9861743E+002	-6.3883995E+001	4.182944297345239E+001	5.9453875E-002	1.7451440E-004	7.0468926E-001	5.6814355E-001	1.000000000000000E+000	12	1.3378212E-001	3.3561533E-004	2.301731702889406E-005	0.0000000E+000	-1.0002968E+002	1.1042919E-003	2.2525473E-003	2.5086710E-003	6.3883995E+001	-1.834873398830597E-007
5.6233929E+002	1.8388365E+002	3.9542865E+002	4.3609290E+002	-6.5060463E+001	4.258591087604873E+001	5.9453838E-002	1.7451370E-004	7.1573716E-001	5.8848011E-001	1.000000000000000E+000	12	1.3316894E-001	3.0536827E-004	2.283885323571061E-005	0.0000000E+000	-1.0004572E+002	9.6690777E-004	2.0792664E-003	2.2930894E-003	6.5060463E+001	-1.784637931834550E-007
5.0144415E+002	1.9324689E+002	4.3656744E+002	4.7742590E+002	-6.6123390E+001	4.334316280533676E+001	5.9454713E-002	1.9456077E-004	7.2701979E-001	6.0790676E-001	1.000000000000000E+000	12	1.3266976E-001	2.7788556E-004	2.289420702522168E-005	0.0000000E+000	-1.0013391E+002	8.4781391E-004	1.9153114E-003	2.0945659E-003	6.6123390E+001	5.535378951106951E-008
4.4685895E+002	2.0366943E+002	4.8211823E+002	5.2337292E+002	-6.7098518E+001	4.409993388131261E+001	5.9461389E-002	1.8892635E-004	7.3874772E-001	6.2687469E-001	1.000000000000000E+000	12	1.3225377E-001	2.5269508E-004	2.283754411470727E-005	0.0000000E+000	-1.0011788E+002	7.4353820E-004	1.7600745E-003	1.9106835E-003	6.7098518E+001	-5.666291051440581E-008
3.9808920E+002	2.1528067E+002	5.3259149E+002	5.7445581E+002	-6.7990776E+001	4.486272559754434E+001	5.9463158E-002	1.7699070E-004	7.5066382E-001	6.4523911E-001	1.000000000000000E+000	12	1.3191429E-001	2.2963349E-004	2.298569748017770E-005	0.0000000E+000	-1.0007779E+002	6.5236673E-004	1.6139162E-003	1.7407780E-003	6.7990776E+001	1.481533654704318E-007
3.5465955E+002	2.2827173E+002	5.8808679E+002	6.3083600E+002	-6.8785782E+001	4.562293187362957E+001	5.9455797E-002	1.5697991E-004	7.6307476E-001	6.6315794E-001	1.000000000000000E+000	12	1.3163184E-001	2.0866253E-004	2.289864115842566E-005	0.0000000E+000	-1.0008581E+002	5.7361333E-004	1.4777756E-003	1.5851981E-003	6.8785782E+001	-8.705632175203887E-008
3.1631586E+002	2.4242401E+002	6.4885089E+002	6.9265930E+002	-6.9513283E+001	4.637990812293720E+001	5.9455086E-002	1.7516260E-004	7.7545077E-001	6.8046331E-001	1.000000000000000E+000	12	1.3140774E-001	1.8971483E-004	2.310679904924958E-005	0.0000000E+000	-1.0009383E+002	5.0528481E-004	1.3524013E-003	1.4437112E-003	6.9513283E+001	2.081578908239152E-007
2.8189429E+002	2.5832745E+002	7.1613544E+002	7.6130353E+002	-7.0164398E+001	4.713542151878937E+001	5.9454005E-002	1.8314426E-004	7.8838557E-001	6.9761103E-001	1.000000000000000E+000	12	1.3122225E-001	1.7236522E-004	2.298978841913049E-005	0.0000000E+000	-1.0005373E+002	4.4571250E-004	1.2356045E-003	1.3135365E-003	7.0164398E+001	-1.170106301190883E-007
2.5104436E+002	2.7609219E+002	7.9090723E+002	8.3771185E+002	-7.0756775E+001	4.789192776806885E+001	5.9455816E-002	1.7311037E-004	8.0157489E-001	7.1450597E-001	1.000000000000000E+000	12	1.3106376E-001	1.5645447E-004	2.301546770611377E-005	0.0000000E+000	-1.0006175E+002	3.9342765E-004	1.1270319E-003	1.1937278E-003	7.0756775E+001	2.567928698327826E-008
2.2392513E+002	2.9549994E+002	8.7204999E+002	9.2075586E+002	-7.1280708E+001	4.865471695099404E+001	5.9459880E-002	1.6796293E-004	8.1503439E-001	7.3108810E-001	1.000000000000000E+000	12	1.3093688E-001	1.4220586E-004	2.306324575851937E-005	0.0000000E+000	-1.0009383E+002	3.4855268E-004	1.0286139E-003	1.0860643E-003	7.1280708E+001	4.777805240559601E-008
1.9955299E+002	3.1729761E+002	9.6232117E+002	1.0132817E+003	-7.1751518E+001	4.941619000045466E+001	5.9459280E-002	1.7771558E-004	8.2878494E-001	7.4751776E-001	1.000000000000000E+000	12	1.3084130E-001	1.2912629E-004	2.327560440139981E-005	0.0000000E+000	-1.0010986E+002	3.0903413E-004	9.3725900E-004	9.8689238E-004	7.1751518E+001	2.123586428804429E-007
1.7778128E+002	3.4155249E+002	1.0619260E+003	1.1155021E+003	-7.2170395E+001	5.018423254360096E+001	5.9458870E-002	1.7206444E-004	8.4302384E-001	7.6398987E-001	1.000000000000000E+000	12	1.3075575E-001	1.1721695E-004	2.341006742251476E-005	0.0000000E+000	-1.0007779E+002	2.7448378E-004	8.5340161E-004	8.9645729E-004	7.2170395E+001	1.344630211149514E-007
1.5842838E+002	3.6852536E+002	1.1713878E+003	1.2279904E+003	-7.2536125E+001	5.095073071337538E+001	5.9454117E-002	1.6451134E-004	8.5760337E-001	7.8036535E-001	1.000000000000000E+000	12	1.3069016E-001	1.0642605E-004	2.338681318437577E-005	0.0000000E+000	-1.0009383E+002	2.4438661E-004	7.7680277E-004	8.1433862E-004	7.2536125E+001	-2.325423813898759E-008
1.4131134E+002	3.9829160E+002	1.2908591E+003	1.3509084E+003	-7.2852509E+001	5.170391058913083E+001	5.9456710E-002	1.7499208E-004	8.7249768E-001	7.9665476E-001	1.000000000000000E+000	12	1.3063556E-001	9.6702010E-005	2.345991259251322E-005	0.0000000E+000	-1.0009383E+002	2.1824754E-004	7.0733804E-004	7.4024260E-004	7.2852509E+001	7.309940813744693E-008
1.2584569E+002	4.3180838E+002	1.4241986E+003	1.4882205E+003	-7.3133011E+001	5.245942857165937E+001	5.9460811E-002	1.7120624E-004	8.8799649E-001	8.1323826E-001	1.000000000000000E+000	12	1.3059381E-001	8.7751650E-005	2.347548019527494E-005	0.0000000E+000	-1.0006977E+002	1.9496499E-004	6.4303708E-004	6.7194348E-004	7.3133011E+001	1.556760276172012E-008
1.1218996E+002	4.6840915E+002	1.5702468E+003	1.6386221E+003	-7.3390007E+001	5.320485362043837E+001	5.9454303E-002	1.5369439E-004	9.0343773E-001	8.2961476E-001	1.000000000000000E+000	12	1.3055570E-001	7.9674079E-005	2.350757201422109E-005	0.0000000E+000	-1.0009383E+002	1.7444871E-004	5.8480399E-004	6.1026885E-004	7.3390007E+001	3.209181894615258E-008
1.0003201E+002	5.0950714E+002	1.7300337E+003	1.8035005E+003	-7.3589928E+001	5.396469989653997E+001	5.9452217E-002	1.6755056E-004	9.1965848E-001	8.4625876E-001	1.000000000000000E+000	12	1.3052438E-001	7.2372801E-005	2.358924277583477E-005	0.0000000E+000	-1.0008581E+002	1.5664543E-004	5.3189025E-004	5.5447727E-004	7.3589928E+001	8.167076161367338E-008
8.9115974E+001	5.5511108E+002	1.9073093E+003	1.9864484E+003	-7.3772675E+001	5.473173115964164E+001	5.9461016E-002	1.6076192E-004	9.3636131E-001	8.6323917E-001	1.000000000000000E+000	12	1.3050136E-001	6.5695822E-005	2.366329519626743E-005	0.0000000E+000	-1.0006977E+002	1.4067773E-004	4.8335537E-004	5.0341099E-004	7.3772675E+001	7.405242043266236E-008
7.9415527E+001	6.0505518E+002	2.1017634E+003	2.1871216E+003	-7.3939957E+001	5.549620506257634E+001	5.9458014E-002	1.8094003E-004	9.5352232E-001	8.8054729E-001	1.000000000000000E+000	12	1.3048074E-001	5.9658658E-005	2.366084790861189E-005	0.0000000E+000	-1.0002166E+002	1.2648797E-004	4.3937765E-004	4.5722196E-004	7.3939957E+001	-2.447287655540269E-009
7.0838745E+001	6.5967865E+002	2.3137844E+003	2.4059871E+003	-7.4086723E+001	5.624736648492399E+001	5.9462003E-002	1.7260377E-004	9.7101599E-001	8.9801913E-001	1.000000000000000E+000	12	1.3046882E-001	5.4226733E-005	2.370153906733685E-005	0.0000000E+000	-1.0007779E+002	1.1395825E-004	3.9970197E-004	4.1562982E-004	7.4086723E+001	4.069115872496512E-008
6.3082302E+001	7.2200873E+002	2.5522434E+003	2.6524033E+003	-7.4204224E+001	5.728481661423575E+001	5.9462599E-002	1.5600450E-005	9.8853147E-001	9.1528338E-001	1.000000000000000E+000	13	1.3093299E-001	4.9363905E-005	2.374759102054243E-005	0.0000000E+000	-1.0009383E+002	1.0262743E-004	3.6277971E-004	3.7701658E-004	7.4204224E+001	4.605195320558163E-008
5.6241817E+001	7.8917456E+002	2.8103003E+003	2.9190039E+003	-7.4314461E+001	5.802834851617808E+001	5.9462357E-002	7.7007844E-006	1.0069504E+000	9.3334925E-001	1.000000000000000E+000	13	1.3083643E-001	4.4822285E-005	2.377277004274654E-005	0.0000000E+000	-1.0006175E+002	9.2619768E-005	3.2982483E-004	3.4258261E-004	7.4314461E+001	2.517902220410499E-008
5.0144413E+001	8.6341003E+002	3.0937842E+003	3.2120051E+003	-7.4406700E+001	5.878515377882286E+001	5.9460215E-002	1.6370366E-005	1.0259060E+000	9.5177680E-001	1.000000000000000E+000	13	1.3075110E-001	4.0707004E-005	2.378798089426821E-005	0.0000000E+000	-1.0003770E+002	8.3688275E-005	2.9987312E-004	3.1133200E-004	7.4406700E+001	1.521085152166637E-008
4.4671219E+001	9.4606537E+002	3.4086323E+003	3.5374871E+003	-7.4488014E+001	5.954922192174126E+001	5.9459955E-002	1.3650098E-005	1.0452307E+000	9.7047144E-001	1.000000000000000E+000	13	1.3068673E-001	3.6943380E-005	2.380251472534494E-005	0.0000000E+000	-1.0005373E+002	7.5601682E-005	2.7238956E-004	2.8268655E-004	7.4488014E+001	1.453383107673191E-008
3.9808922E+001	1.0364415E+003	3.7535828E+003	3.8940461E+003	-7.4564079E+001	6.031173563800985E+001	5.9458964E-002	1.9185583E-005	1.0651082E+000	9.8965430E-001	1.000000000000000E+000	13	1.3063219E-001	3.3546647E-005	2.376029840668687E-005	0.0000000E+000	-1.0009383E+002	6.8350630E-005	2.4753911E-004	2.5680230E-004	7.4564079E+001	-4.221631865806869E-008
3.5465305E+001	1.1372783E+003	4.1334189E+003	4.2870215E+003	-7.4616173E+001	6.106213140694308E+001	5.9467725E-002	1.3120482E-005	1.0856929E+000	1.0092866E+000	1.000000000000000E+000	13	1.3059093E-001	3.0461924E-005	2.382391845895088E-005	0.0000000E+000	-1.0007779E+002	6.1880717E-005	2.2490448E-004	2.3326218E-004	7.4616173E+001	6.362005226401171E-008
3.1629551E+001	1.2460323E+003	4.5482368E+003	4.7158301E+003	-7.4679192E+001	6.178642933469382E+001	5.9463888E-002	9.3709914E-006	1.1063284E+000	1.0290912E+000	1.000000000000000E+000	13	1.3055037E-001	2.7683434E-005	2.385272307964215E-005	0.0000000E+000	-9.9989586E+001	5.6029021E-005	2.0451575E-004	2.1205175E-004	7.4679192E+001	2.880462069126599E-008
2.8170074E+001	1.3678832E+003	5.0098857E+003	5.1932705E+003	-7.4728378E+001	6.259173790630302E+001	5.9474774E-002	1.1701381E-005	1.1277279E+000	1.0494894E+000	1.000000000000000E+000	13	1.3052469E-001	2.5133430E-005	2.381804781255566E-005	0.0000000E+000	-1.0006977E+002	5.0718572E-005	1.8575731E-004	1.9255688E-004	7.4728378E+001	-3.467526708648971E-008
2.5104435E+001	1.5007795E+003	5.5151001E+003	5.7156514E+003	-7.4777168E+001	6.334791050219792E+001	5.9464391E-002	1.0558408E-005	1.1495194E+000	1.0702658E+000	1.000000000000000E+000	13	1.3049866E-001	2.2831809E-005	2.380342943426179E-005	0.0000000E+000	-1.0008581E+002	4.5939418E-005	1.6881924E-004	1.7495819E-004	7.4777168E+001	-1.461837829386643E-008
2.2385387E+001	1.6460311E+003	6.0685034E+003	6.2877778E+003	-7.4824135E+001	6.403443317479105E+001	5.9461892E-002	9.8013870E-006	1.1715853E+000	1.0912964E+000	1.000000000000000E+000	13	1.3048315E-001	2.0751870E-005	2.383165638176110E-005	0.0000000E+000	-1.0009383E+002	4.1633572E-005	1.5349251E-004	1.5903870E-004	7.4824135E+001	2.822694749930689E-008
1.9955299E+001	1.8068593E+003	6.6799746E+003	6.9200288E+003	-7.4864319E+001	6.479621089095599E+001	5.9467688E-002	1.1850393E-005	1.1939526E+000	1.1125535E+000	1.000000000000000E+000	13	1.3046780E-001	1.8853651E-005	2.380318307675184E-005	0.0000000E+000	-1.0006175E+002	3.7731883E-005	1.3949511E-004	1.4450807E-004	7.4864319E+001	-2.847330500925369E-008
1.7796129E+001	1.9812612E+003	7.3485005E+003	7.6109038E+003	-7.4911018E+001	6.564052613105741E+001	5.9467252E-002	1.4942579E-005	1.2170148E+000	1.1345427E+000	1.000000000000000E+000	13	1.3045132E-001	1.7140057E-005	2.381146308922083E-005	0.0000000E+000	-1.0005373E+002	3.4203404E-005	1.2686045E-004	1.3139044E-004	7.4911018E+001	8.280012468982141E-009
1.5857576E+001	2.1741746E+003	8.0891328E+003	8.3762227E+003	-7.4955750E+001	6.636192269870662E+001	5.9466198E-002	1.3766950E-005	1.2407416E+000	1.1571479E+000	1.000000000000000E+000	13	1.3044329E-001	1.5573045E-005	2.385317286858753E-005	0.0000000E+000	-1.0009383E+002	3.0988307E-005	1.1529370E-004	1.1938556E-004	7.4955750E+001	4.170977936670848E-008
1.4118974E+001	2.3877847E+003	8.9125908E+003	9.2269063E+003	-7.5002022E+001	6.716422791013611E+001	5.9463475E-002	1.1527763E-005	1.2647743E+000	1.1800727E+000	1.000000000000000E+000	13	1.3043597E-001	1.4136480E-005	2.386846979612321E-005	0.0000000E+000	-1.0002968E+002	2.8046776E-005	1.0468677E-004	1.0837869E-004	7.5002022E+001	1.529692753567556E-008
1.2600808E+001	2.6211638E+003	9.8012646E+003	1.0145703E+004	-7.5027695E+001	6.805487819242990E+001	5.9468351E-002	1.1894976E-005	1.2886639E+000	1.2026509E+000	1.000000000000000E+000	13	1.3043086E-001	1.2855773E-005	2.382430945135416E-005	0.0000000E+000	-1.0006175E+002	2.5464191E-005	9.5217729E-005	9.8563891E-005	7.5027695E+001	-4.416034476904966E-008
1.1224856E+001	2.8767593E+003	1.0794203E+004	1.1170970E+004	-7.5076981E+001	6.873891366491443E+001	5.9462935E-002	9.8291139E-006	1.3135564E+000	1.2264452E+000	1.000000000000000E+000	13	1.3042349E-001	1.1675216E-005	2.390113158913406E-005	0.0000000E+000	-1.0010986E+002	2.3052702E-005	8.6498549E-005	8.9517744E-005	7.5076981E+001	7.682213777990304E-008
1.0003201E+001	3.1453904E+003	1.1881835E+004	1.2291114E+004	-7.5172623E+001	6.949971135441592E+001	5.9461184E-002	1.2338659E-005	1.3390526E+000	1.2513597E+000	1.000000000000000E+000	13	1.3041879E-001	1.0610819E-005	2.383325700884843E-005	0.0000000E+000	-1.0004572E+002	2.0820546E-005	7.8650417E-005	8.1359591E-005	7.5172623E+001	-6.787458028563510E-008
8.9183798E+000	3.4705032E+003	1.3077534E+004	1.3530199E+004	-7.5137482E+001	7.034405072784284E+001	5.9471063E-002	1.7791222E-005	1.3646092E+000	1.2748282E+000	1.000000000000000E+000	13	1.3041684E-001	9.6389449E-006	2.388170212701498E-005	0.0000000E+000	-1.0008581E+002	1.8957633E-005	7.1436058E-005	7.3908741E-005	7.5137482E+001	4.844511816655528E-008
7.9395342E+000	3.8058042E+003	1.4412188E+004	1.4906218E+004	-7.5207657E+001	7.128266415910184E+001	5.9473377E-002	1.4863079E-005	1.3908978E+000	1.3002299E+000	1.000000000000000E+000	13	1.3041236E-001	8.7488561E-006	2.383600271528874E-005	0.0000000E+000	-1.0010184E+002	1.7128192E-005	6.4862696E-005	6.7086097E-005	7.5207657E+001	-4.569941172624512E-008
7.0765405E+000	4.1765952E+003	1.5861966E+004	1.6402619E+004	-7.5248352E+001	7.184103386561037E+001	5.9463721E-002	9.6109097E-006	1.4178886E+000	1.3259579E+000	1.000000000000000E+000	13	1.3040951E-001	7.9505298E-006	2.382890249923013E-005	0.0000000E+000	-1.0006175E+002	1.5523727E-005	5.8956353E-005	6.0965875E-005	7.5248352E+001	-7.100216058611550E-009
6.3105822E+000	4.5684624E+003	1.7532301E+004	1.8117738E+004	-7.5394981E+001	7.246118136172299E+001	5.9452869E-002	1.8934998E-005	1.4385064E+000	1.3470435E+000	1.000000000000000E+000	13	1.3041589E-001	7.1982436E-006	2.381242119215181E-005	0.0000000E+000	-1.0011788E+002	1.3917527E-005	5.3411030E-005	5.5194527E-005	7.5394981E+001	-1.648130707831733E-008
5.6205034E+000	5.0727217E+003	1.9284777E+004	1.9940791E+004	-7.5262604E+001	7.314765766101846E+001	5.9474699E-002	1.6425423E-005	1.4683524E+000	1.3733296E+000	1.000000000000000E+000	13	1.3041072E-001	6.5398967E-006	2.382779434269888E-005	0.0000000E+000	-1.0007779E+002	1.2757228E-005	4.8498674E-005	5.0148461E-005	7.5262604E+001	1.537315054707158E-008
5.0144415E+000	5.5894917E+003	2.1197805E+004	2.1922348E+004	-7.5228325E+001	7.390517345696571E+001	5.9454639E-002	3.7253147E-005	1.4972926E+000	1.3999559E+000	1.000000000000000E+000	13	1.3039713E-001	5.9481367E-006	2.389354479568505E-005	0.0000000E+000	-1.0002968E+002	1.1630495E-005	4.4107939E-005	4.5615554E-005	7.5228325E+001	6.575045298617136E-008
4.4693937E+000	6.0692139E+003	2.3383029E+004	2.4157844E+004	-7.5449593E+001	7.474649408357800E+001	5.9479825E-002	1.3560657E-005	1.5228977E+000	1.4267765E+000	1.000000000000000E+000	13	1.3040431E-001	5.3980111E-006	2.393041544120832E-005	0.0000000E+000	-1.0005373E+002	1.0399589E-005	4.0066778E-005	4.1394422E-005	7.5449593E+001	3.687064552327127E-008
3.9778514E+000	6.7038716E+003	2.5918219E+004	2.6771178E+004	-7.5498001E+001	7.598415664906497E+001	5.9479501E-002	-2.4089599E-005	1.5437125E+000	1.4469109E+000	1.000000000000000E+000	14	1.3043931E-001	4.8723787E-006	2.389599428580823E-005	0.0000000E+000	-1.0006175E+002	9.3538574E-006	3.6163477E-005	3.7353606E-005	7.5498001E+001	-3.442115540009497E-008
3.5511365E+000	7.3561772E+003	2.8304867E+004	2.9245150E+004	-7.5431641E+001	7.702541336513241E+001	5.9474029E-002	-7.3421752E-006	1.5834036E+000	1.4832220E+000	1.000000000000000E+000	14	1.3042738E-001	4.4597950E-006	2.380596486670816E-005	0.0000000E+000	-1.0009383E+002	8.6009104E-006	3.3094315E-005	3.4193705E-005	7.5431641E+001	-9.002941910006771E-008
3.1603966E+000	8.1511274E+003	3.1305408E+004	3.2349180E+004	-7.5405693E+001	7.818720544702956E+001	5.9483133E-002	5.4491434E-006	1.6086413E+000	1.5065078E+000	1.000000000000000E+000	14	1.3042542E-001	4.0318000E-006	2.385348660614838E-005	0.0000000E+000	-1.0003770E+002	7.7891682E-006	2.9915262E-005	3.0912684E-005	7.5405693E+001	4.752173944022351E-008
2.8183618E+000	8.8404453E+003	3.4464645E+004	3.5580406E+004	-7.5613373E+001	7.948265166858255E+001	5.9479821E-002	-3.8559315E-006	1.6385119E+000	1.5373592E+000	1.000000000000000E+000	14	1.3041626E-001	3.6653953E-006	2.390084289229460E-005	0.0000000E+000	-1.0005373E+002	6.9831640E-006	2.7224005E-005	2.8105356E-005	7.5613373E+001	4.735628614621715E-008
2.5136740E+000	9.7715029E+003	3.7871313E+004	3.9111617E+004	-7.5532173E+001	8.092667520383111E+001	5.9479322E-002	-2.7730077E-006	1.6718636E+000	1.5675088E+000	1.000000000000000E+000	14	1.3041620E-001	3.3344620E-006	2.379632155513117E-005	0.0000000E+000	-1.0007779E+002	6.3877778E-006	2.4757046E-005	2.5567851E-005	7.5532173E+001	-1.045213371634327E-007
2.2398219E+000	1.0782549E+004	4.1769496E+004	4.3138777E+004	-7.5525429E+001	8.254139512046822E+001	5.9475873E-002	5.2605442E-006	1.7011688E+000	1.5948881E+000	1.000000000000000E+000	14	1.3041466E-001	3.0231424E-006	2.388713527040485E-005	0.0000000E+000	-1.0006175E+002	5.7940983E-006	2.2445205E-005	2.3181001E-005	7.5525429E+001	9.081371527367712E-008
1.9970604E+000	1.1870175E+004	4.6099125E+004	4.7602840E+004	-7.5560440E+001	8.434468299284345E+001	5.9482694E-002	-5.5481291E-006	1.7287660E+000	1.6212720E+000	1.000000000000000E+000	14	1.3041291E-001	2.7396036E-006	2.385547283688639E-005	0.0000000E+000	-1.0006175E+002	5.2383134E-006	2.0343559E-005	2.1007150E-005	7.5560440E+001	-3.166243351845324E-008
1.7796129E+000	1.3029290E+004	5.0742156E+004	5.2388250E+004	-7.5599030E+001	8.636282724869670E+001	5.9490219E-002	3.6497877E-006	1.7624859E+000	1.6534677E+000	1.000000000000000E+000	14	1.3040704E-001	2.4892420E-006	2.381166825492725E-005	0.0000000E+000	-1.0004572E+002	4.7473677E-006	1.8488476E-005	1.9088249E-005	7.5599030E+001	-4.380458195914189E-008
1.5846854E+000	1.4354217E+004	5.5931988E+004	5.7744531E+004	-7.5606415E+001	8.862198079598602E+001	5.9480052E-002	-4.5290705E-008	1.7956299E+000	1.6846730E+000	1.000000000000000E+000	14	1.3040900E-001	2.2583783E-006	2.390999986230478E-005	0.0000000E+000	-1.0011788E+002	4.3048485E-006	1.6774075E-005	1.7317658E-005	7.5606415E+001	9.833160737753144E-008
1.4122382E+000	1.5904526E+004	6.1584590E+004	6.3605156E+004	-7.5519478E+001	9.115020872940659E+001	5.9484690E-002	6.5925656E-007	1.8299537E+000	1.7155349E+000	1.000000000000000E+000	14	1.3040665E-001	2.0502528E-006	2.378753961964309E-005	0.0000000E+000	-1.0006977E+002	3.9312990E-006	1.5222551E-005	1.5721997E-005	7.5519478E+001	-1.224602426616967E-007
1.2596743E+000	1.7574648E+004	6.7815648E+004	7.0055906E+004	-7.5471237E+001	9.397894715709845E+001	5.9487987E-002	1.8298448E-006	1.8630818E+000	1.7458313E+000	1.000000000000000E+000	14	1.3040593E-001	1.8614552E-006	2.391082454202319E-005	0.0000000E+000	-1.0008581E+002	3.5809398E-006	1.3817848E-005	1.4274314E-005	7.5471237E+001	1.232849223801080E-007
1.1224856E+000	1.9396277E+004	7.4737883E+004	7.7213773E+004	-7.5451332E+001	9.714699122757884E+001	5.9485175E-002	5.7795643E-007	1.8971364E+000	1.7774221E+000	1.000000000000000E+000	14	1.3040532E-001	1.6888868E-006	2.380700305990121E-005	0.0000000E+000	-1.0008581E+002	3.2533351E-006	1.2535776E-005	1.2951057E-005	7.5451332E+001	-1.038214821219799E-007
1.0000638E+000	2.1483955E+004	8.2395070E+004	8.5149914E+004	-7.5385902E+001	1.006961237428186E+002	5.9486687E-002	2.0055184E-006	1.9314845E+000	1.8085279E+000	1.000000000000000E+000	14	1.3040257E-001	1.5314469E-006	2.388220671215772E-005	0.0000000E+000	-1.0005373E+002	2.9630969E-006	1.1364041E-005	1.1743993E-005	7.5385902E+001	7.520365225650174E-008