EC-Lab ASCII FILE
Nb header lines : 75                          

Potentio Electrochemical Impedance Spectroscopy

Run on channel : 4 (SN 4192)
User : 
CE vs. WE compliance from -10 V to 10 V
Electrode connection : standard
Ewe ctrl range : min = -10.00 V, max = 10.00 V
Safety Limits :
	Do not start on E overload
Acquisition started on : 01/24/2020 09:45:03
Technique started on : 01/24/2020 09:45:04
Saved on :
	File : DE_40_4_60.mpr
	Directory : P:\Chemistry\Data\VMP3\Kyler\DOE\DE_40\2ND 60C\
	Host : 10.0.4.99
Device : VMP3 (SN 0183)
Address : USB
EC-Lab for windows v11.33 (software)
Internet server v11.32 (firmware)
Command interpretor v11.33 (firmware)
Electrode material : 
Initial state : 
Electrolyte : 
Comments : 
Electrode surface area : 0.001 cm²
Characteristic mass : 0.001 g
Equivalent Weight : 0.000 g/eq.
Density : 0.000 g/cm3
Record Analogic IN 1
Cycle Definition : Charge/Discharge alternance
External device configuration :
   device type : Thermostat
   device name : Other
   Analog OUT : 
      mode : E/V
      unit : T/°C
      max : 400.000 at 5.000 V
      min : -100.000 at 0.000 V
      current : 0.000
   Analog IN 1 : 
      unit : T/°C
      max : 400.000 at 5.000 V
      min : -100.000 at 0.000 V
Mode                Single sine         
E (V)               0.0000              
vs.                 Eoc                 
tE (h:m:s)          0:00:0.0000         
record              0                   
dI                  1.000               
unit dI             mA                  
dt (s)              0.000               
fi                  1.000               
unit fi             MHz                 
ff                  1.000               
unit ff             Hz                  
Nd                  20                  
Points              per decade          
spacing             Logarithmic         
Va (mV)             128.0               
pw                  0.50                
Na                  3                   
corr                0                   
E range min (V)     -10.000             
E range max (V)     10.000              
I Range             Auto                
Bandwidth           5                   
nc cycles           0                   
goto Ns'            0                   
nr cycles           0                   
inc. cycle          1                   

freq/Hz	Re(Z)/Ohm	-Im(Z)/Ohm	|Z|/Ohm	Phase(Z)/deg	time/s	<Ewe>/V	<I>/mA	Cs/µF	Cp/µF	cycle number	I Range	|Ewe|/V	|I|/A	(Q-Qo)/mA.h	Analog OUT/V	Analog IN 1/V	Re(Y)/Ohm-1	Im(Y)/Ohm-1	|Y|/Ohm-1	Phase(Y)/deg	dq/mA.h	
1.0000186E+006	7.1192070E+001	3.8389744E+001	8.0883148E+001	-2.8335403E+001	1.645491438132012E+000	-5.3853437E-002	1.9401397E-003	4.1456902E-003	9.3392323E-004	1.000000000000000E+000	11	6.1230431E-004	7.5702337E-006	4.450667250202968E-007	0.0000000E+000	-1.0003242E+002	1.0882171E-002	5.8681220E-003	1.2363515E-002	2.8335403E+001	4.450667250202968E-007
8.9124669E+005	7.6872101E+001	3.7865013E+001	8.5691765E+001	-2.6223549E+001	2.241477866453351E+000	-5.3601034E-002	2.2174530E-003	4.7161118E-003	9.2083571E-004	1.000000000000000E+000	11	7.5767864E-004	8.8419074E-006	7.654373923955467E-007	0.0000000E+000	-1.0009658E+002	1.0468647E-002	5.1565585E-003	1.1669733E-002	2.6223549E+001	3.203706673752499E-007
7.9433269E+005	8.3566917E+001	3.8522396E+001	9.2018501E+001	-2.4748596E+001	2.836489201377844E+000	-5.3430174E-002	2.5995497E-003	5.2012098E-003	9.1155036E-004	1.000000000000000E+000	11	6.3352915E-004	6.8848017E-006	1.114303316378533E-006	0.0000000E+000	-1.0012064E+002	9.8692477E-003	4.5494926E-003	1.0867380E-002	2.4748596E+001	3.488659239829860E-007
7.0794981E+005	1.0091820E+000	2.1414263E+000	2.3673096E+000	-6.4767075E+001	3.631600172520848E+000	-5.3244695E-002	2.8376284E-001	1.0498192E-001	8.5903466E-002	1.000000000000000E+000	9	3.0497977E-005	1.2882970E-005	2.828246773426589E-005	0.0000000E+000	-1.0002441E+002	1.8007751E-001	3.8211405E-001	4.2242047E-001	6.4767075E+001	2.716816441788736E-005
6.3095681E+005	9.2521034E+001	3.5603374E+001	9.9134972E+001	-2.1047415E+001	4.807481081661535E+000	-5.3184684E-002	3.0707973E-003	7.0848283E-003	9.1381418E-004	1.000000000000000E+000	11	1.3762666E-003	1.3882755E-005	5.740999713970976E-005	0.0000000E+000	-1.0010460E+002	9.4142715E-003	3.6227417E-003	1.0087257E-002	2.1047415E+001	2.912752940544386E-005
5.6234225E+005	9.6459526E+001	3.5057045E+001	1.0263253E+002	-1.9973061E+001	5.403490336640971E+000	-5.3084161E-002	3.1454298E-003	8.0731707E-003	9.4194309E-004	1.000000000000000E+000	11	3.6298556E-003	3.5367495E-005	5.770285636490290E-005	0.0000000E+000	-1.0011262E+002	9.1574602E-003	3.3281678E-003	9.7434996E-003	1.9973061E+001	2.928592251931481E-007
5.0120619E+005	1.0154095E+002	3.4450962E+001	1.0722608E+002	-1.8741121E+001	6.000489004974952E+000	-5.3035058E-002	3.3739822E-003	9.2172706E-003	9.5148996E-004	1.000000000000000E+000	11	6.8795588E-003	6.4159380E-005	5.825452708617013E-005	0.0000000E+000	-1.0008054E+002	8.8316193E-003	2.9964047E-003	9.3260892E-003	1.8741121E+001	5.516707212672246E-007
4.4668572E+005	1.0535562E+002	3.3287872E+001	1.1048932E+002	-1.7534307E+001	6.595473673223751E+000	-5.2981775E-002	3.5113371E-003	1.0703653E-002	9.7154628E-004	1.000000000000000E+000	11	1.1212286E-002	1.0147846E-004	5.862726125081058E-005	0.0000000E+000	-1.0004846E+002	8.6301258E-003	2.7267504E-003	9.0506487E-003	1.7534307E+001	3.727341646404540E-007
3.9810347E+005	1.0921362E+002	3.1852642E+001	1.1376381E+002	-1.6259562E+001	7.190487061481690E+000	-5.2992459E-002	3.5245516E-003	1.2551012E-002	9.8392367E-004	1.000000000000000E+000	11	1.6654801E-002	1.4639806E-004	5.873115633985799E-005	0.0000000E+000	-1.0012865E+002	8.4385639E-003	2.4611449E-003	8.7901419E-003	1.6259562E+001	1.038950890474053E-007
3.5480997E+005	1.1200828E+002	3.0142879E+001	1.1599331E+002	-1.5062195E+001	7.786473169835517E+000	-5.2950568E-002	3.4970078E-003	1.4881255E-002	1.0049471E-003	1.000000000000000E+000	11	2.3133254E-002	1.9943611E-004	5.959908092515131E-005	0.0000000E+000	-1.0015271E+002	8.3250003E-003	2.2403656E-003	8.6211869E-003	1.5062195E+001	8.679245852933202E-007
3.1622997E+005	1.1440999E+002	2.8358273E+001	1.1787212E+002	-1.3921074E+001	8.381479624746135E+000	-5.2945908E-002	3.4610899E-003	1.7747506E-002	1.0272465E-003	1.000000000000000E+000	11	3.0605057E-002	2.5964627E-004	5.989013153863723E-005	0.0000000E+000	-1.0011262E+002	8.2345856E-003	2.0410684E-003	8.4837703E-003	1.3921074E+001	2.910506134859241E-007
2.8183453E+005	1.1645966E+002	2.6441843E+001	1.1942371E+002	-1.2791980E+001	8.976478666329058E+000	-5.2969899E-002	3.4115850E-003	2.1356702E-002	1.0469755E-003	1.000000000000000E+000	11	3.9256204E-002	3.2871365E-004	6.000326176674450E-005	0.0000000E+000	-1.0009658E+002	8.1657181E-003	1.8540036E-003	8.3735464E-003	1.2791980E+001	1.131302281072663E-007
2.5118764E+005	1.1852609E+002	2.4674227E+001	1.2106714E+002	-1.1759621E+001	9.572486614662921E+000	-5.2940186E-002	3.5517295E-003	2.5679013E-002	1.0666277E-003	1.000000000000000E+000	11	4.9046740E-002	4.0512017E-004	6.017423714709184E-005	0.0000000E+000	-1.0012865E+002	8.0865147E-003	1.6834142E-003	8.2598794E-003	1.1759621E+001	1.709753803473451E-007
2.2387173E+005	1.2020704E+002	2.2911976E+001	1.2237112E+002	-1.0791380E+001	1.016847901625442E+001	-5.2959070E-002	3.2595298E-003	3.1028323E-002	1.0877411E-003	1.000000000000000E+000	11	5.9972901E-002	4.9009034E-004	6.063830620689785E-005	0.0000000E+000	-1.0004846E+002	8.0273468E-003	1.5300467E-003	8.1718629E-003	1.0791380E+001	4.640690598060044E-007
1.9954350E+005	1.2153450E+002	2.1237757E+001	1.2337616E+002	-9.9121656E+000	1.076449445795151E+001	-5.2911196E-002	3.6237643E-003	3.7555531E-002	1.1128297E-003	1.000000000000000E+000	11	7.1799956E-002	5.8195973E-004	6.013994356984080E-005	0.0000000E+000	-1.0010460E+002	7.9843048E-003	1.3952312E-003	8.1052938E-003	9.9121656E+000	-4.983626370570486E-007
1.7783180E+005	1.2253911E+002	1.9689804E+001	1.2411092E+002	-9.1283617E+000	1.136047520625289E+001	-5.2913580E-002	3.3157459E-003	4.5453709E-002	1.1440160E-003	1.000000000000000E+000	11	8.4554233E-002	6.8127952E-004	6.141211374465921E-005	0.0000000E+000	-1.0004044E+002	7.9552662E-003	1.2782664E-003	8.0573084E-003	9.1283617E+000	1.272170174818414E-006
1.5848613E+005	1.2339605E+002	1.8245789E+001	1.2473770E+002	-8.4110165E+000	1.195548310116283E+001	-5.2932687E-002	3.2414875E-003	5.5038460E-002	1.1775952E-003	1.000000000000000E+000	11	9.8281801E-002	7.8790775E-004	6.171926981850063E-005	0.0000000E+000	-1.0012064E+002	7.9305954E-003	1.1726466E-003	8.0168229E-003	8.4110165E+000	3.071560738414142E-007
1.4125594E+005	1.2405275E+002	1.6943125E+001	1.2520445E+002	-7.7773356E+000	1.255149059611722E+001	-5.2934106E-002	3.5787313E-003	6.6499732E-002	1.2177759E-003	1.000000000000000E+000	11	1.1277947E-001	9.0076245E-004	6.394924372046282E-005	0.0000000E+000	-1.0005648E+002	7.9134684E-003	1.0808215E-003	7.9869367E-003	7.7773356E+000	2.229973901962190E-006
1.2590930E+005	1.2467294E+002	1.5798648E+001	1.2566996E+002	-7.2220702E+000	1.301147235129611E+001	-5.2943669E-002	3.5591894E-003	8.0009654E-002	1.2645014E-003	1.000000000000000E+000	11	1.2829864E-001	1.0209173E-003	6.473306200530512E-005	0.0000000E+000	-1.0014469E+002	7.8942208E-003	1.0003615E-003	7.9573514E-003	7.2220702E+000	7.838182848423064E-007
1.1220494E+005	1.2514742E+002	1.4778784E+001	1.2601702E+002	-6.7349243E+000	1.360747488631750E+001	-5.3034775E-002	2.7291116E-003	9.5977500E-002	1.3200440E-003	1.000000000000000E+000	11	1.2926009E-001	1.0257352E-003	6.671503904118677E-005	0.0000000E+000	-1.0006450E+002	7.8806756E-003	9.3063689E-004	7.9354355E-003	6.7349243E+000	1.981977035881650E-006
1.0000371E+005	1.2554836E+002	1.3922579E+001	1.2631796E+002	-6.3279123E+000	1.420348822124652E+001	-5.2926350E-002	3.5800338E-003	1.1431002E-001	1.3886521E-003	1.000000000000000E+000	11	1.2972060E-001	1.0269370E-003	6.966034952368824E-005	0.0000000E+000	-1.0012064E+002	7.8682983E-003	8.7254826E-004	7.9165306E-003	6.3279123E+000	2.945310482501464E-006
8.9129305E+004	1.2586069E+002	1.3195530E+001	1.2655052E+002	-5.9851584E+000	1.479848083617981E+001	-5.2924540E-002	3.4179278E-003	1.3532336E-001	1.4712909E-003	1.000000000000000E+000	11	1.2967938E-001	1.0247242E-003	7.228549798216571E-005	0.0000000E+000	-1.0009658E+002	7.8589078E-003	8.2394638E-004	7.9019824E-003	5.9851584E+000	2.625148458477468E-006
7.9433273E+004	1.2611855E+002	1.2610409E+001	1.2674743E+002	-5.7099423E+000	1.539348057113239E+001	-5.2881289E-002	3.7306021E-003	1.5888706E-001	1.5727819E-003	1.000000000000000E+000	11	1.2954316E-001	1.0220575E-003	7.427093115701265E-005	0.0000000E+000	-1.0007252E+002	7.8505604E-003	7.8496599E-004	7.8897066E-003	5.7099423E+000	1.985433174846946E-006
7.0794977E+004	1.2630422E+002	1.2176115E+001	1.2688977E+002	-5.5064731E+000	1.598847630605451E+001	-5.2917905E-002	3.4209052E-003	1.8463282E-001	1.7000950E-003	1.000000000000000E+000	11	1.2947665E-001	1.0203868E-003	7.499826438076384E-005	0.0000000E+000	-1.0014469E+002	7.8444891E-003	7.5623282E-004	7.8808563E-003	5.5064731E+000	7.273332237511858E-007
6.3093828E+004	1.2646981E+002	1.1868505E+001	1.2702549E+002	-5.3611965E+000	1.658347233428503E+001	-5.2878812E-002	3.8085848E-003	2.1253830E-001	1.8554426E-003	1.000000000000000E+000	11	1.2942609E-001	1.0188986E-003	7.407227799290640E-005	0.0000000E+000	-1.0005648E+002	7.8379968E-003	7.3555351E-004	7.8724353E-003	5.3611965E+000	-9.259863878574429E-007
5.6237012E+004	1.2659299E+002	1.1693678E+001	1.2713194E+002	-5.2775626E+000	1.717948590926244E+001	-5.2904986E-002	3.5772424E-003	2.4201749E-001	2.0475746E-003	1.000000000000000E+000	11	1.2931436E-001	1.0171667E-003	7.283961467170755E-005	0.0000000E+000	-1.0007252E+002	7.8324992E-003	7.2350545E-004	7.8658443E-003	5.2775626E+000	-1.232663321198849E-006
5.0122477E+004	1.2677927E+002	1.1678898E+001	1.2731607E+002	-5.2632284E+000	1.763947699780692E+001	-5.2863318E-002	3.5796629E-003	2.7188531E-001	2.2878260E-003	1.000000000000000E+000	11	1.4052685E-001	1.1037636E-003	7.366938974020256E-005	0.0000000E+000	-1.0009658E+002	7.8213522E-003	7.2050234E-004	7.8544682E-003	5.2632284E+000	8.297750684950093E-007
4.4666715E+004	1.2682896E+002	1.1767035E+001	1.2737365E+002	-5.3006577E+000	1.823548750611371E+001	-5.2887797E-002	3.6570868E-003	3.0280918E-001	2.5843063E-003	1.000000000000000E+000	11	1.3024691E-001	1.0225577E-003	7.371812126925296E-005	0.0000000E+000	-1.0005648E+002	7.8173438E-003	7.2528358E-004	7.8509171E-003	5.3006577E+000	4.873152905039886E-008
3.9814063E+004	1.2699020E+002	1.2022305E+001	1.2755801E+002	-5.4081373E+000	1.869448366123834E+001	-5.2875921E-002	3.5176864E-003	3.3250326E-001	2.9536290E-003	1.000000000000000E+000	11	1.3981147E-001	1.0960619E-003	7.493150717315682E-005	0.0000000E+000	-1.0006450E+002	7.8046736E-003	7.3887722E-004	7.8395708E-003	5.4081373E+000	1.213385903903861E-006
3.5480996E+004	1.2699459E+002	1.2401330E+001	1.2759866E+002	-5.5773883E+000	1.928947955617332E+001	-5.2873384E-002	3.6835140E-003	3.6170632E-001	3.4166488E-003	1.000000000000000E+000	11	1.3003635E-001	1.0191044E-003	7.459496763975363E-005	0.0000000E+000	-1.0008054E+002	7.7999709E-003	7.6168613E-004	7.8370729E-003	5.5773883E+000	-3.365395334031888E-007
3.1621143E+004	1.2718836E+002	1.2945754E+001	1.2784550E+002	-5.8117847E+000	1.974948117803433E+001	-5.2858230E-002	3.7553564E-003	3.8879013E-001	3.9865668E-003	1.000000000000000E+000	11	1.3772500E-001	1.0772769E-003	7.511721605065799E-005	0.0000000E+000	-1.0007252E+002	7.7817361E-003	7.9205708E-004	7.8219417E-003	5.8117847E+000	5.222484109043609E-007
2.8188096E+004	1.2718845E+002	1.3627062E+001	1.2791637E+002	-6.1153827E+000	2.034547093967558E+001	-5.2867346E-002	3.7648461E-003	4.1433552E-001	4.7022356E-003	1.000000000000000E+000	11	1.2966071E-001	1.0136366E-003	7.502402244677150E-005	0.0000000E+000	-1.0009658E+002	7.7731214E-003	8.3281781E-004	7.8176083E-003	6.1153827E+000	-9.319360388649028E-008
2.5116910E+004	1.2738136E+002	1.4474088E+001	1.2820105E+002	-6.4826002E+000	2.080449277479784E+001	-5.2864324E-002	3.6204208E-003	4.3778685E-001	5.5803563E-003	1.000000000000000E+000	11	1.3550268E-001	1.0569545E-003	7.528670236701711E-005	0.0000000E+000	-1.0004846E+002	7.7503747E-003	8.8065950E-004	7.8002480E-003	6.4826002E+000	2.626799202456125E-007
2.2389027E+004	1.2751674E+002	1.5490569E+001	1.2845418E+002	-6.9262800E+000	2.126349452990689E+001	-5.2847881E-002	3.6770010E-003	4.5889947E-001	6.6735330E-003	1.000000000000000E+000	11	1.4071022E-001	1.0954118E-003	7.492877341532747E-005	0.0000000E+000	-1.0007252E+002	7.7280640E-003	9.3879527E-004	7.7848770E-003	6.9262800E+000	-3.579289516896433E-007
1.9948783E+004	1.2758495E+002	1.6675961E+001	1.2867015E+002	-7.4466171E+000	2.185848367816652E+001	-5.2868035E-002	3.6699267E-003	4.7842389E-001	8.0359820E-003	1.000000000000000E+000	11	1.2963845E-001	1.0075254E-003	7.722904932910024E-005	0.0000000E+000	-1.0018479E+002	7.7062631E-003	1.0072453E-003	7.7718101E-003	7.4466171E+000	2.300275913772774E-006
1.7786895E+004	1.2778026E+002	1.8068935E+001	1.2905147E+002	-8.0486212E+000	2.231748186002369E+001	-5.2857690E-002	3.7263220E-003	4.9520779E-001	9.7079314E-003	1.000000000000000E+000	11	1.3315825E-001	1.0318229E-003	7.710295076453621E-005	0.0000000E+000	-1.0008855E+002	7.6725171E-003	1.0849423E-003	7.7488464E-003	8.0486212E+000	-1.260985645640272E-007
1.5847686E+004	1.2801643E+002	1.9668350E+001	1.2951854E+002	-8.7345819E+000	2.277748510849779E+001	-5.2866340E-002	3.6857484E-003	5.1060653E-001	1.1774930E-002	1.000000000000000E+000	11	1.3619478E-001	1.0515467E-003	7.689371660229599E-005	0.0000000E+000	-1.0008855E+002	7.6313587E-003	1.1724763E-003	7.7209026E-003	8.7345819E+000	-2.092341622402275E-007
1.4121879E+004	1.2825954E+002	2.1497133E+001	1.3004858E+002	-9.5147076E+000	2.323648934366065E+001	-5.2853402E-002	3.6963571E-003	5.2426046E-001	1.4325076E-002	1.000000000000000E+000	11	1.3872047E-001	1.0666819E-003	7.809516408108902E-005	0.0000000E+000	-1.0011262E+002	7.5836522E-003	1.2710694E-003	7.6894341E-003	9.5147076E+000	1.201447478793038E-006
1.2590932E+004	1.2846928E+002	2.3543768E+001	1.3060883E+002	-1.0385003E+001	2.383247558531002E+001	-5.2865051E-002	3.6427532E-003	5.3689122E-001	1.7445892E-002	1.000000000000000E+000	11	1.2925877E-001	9.8966330E-004	7.890434728782202E-005	0.0000000E+000	-1.0004044E+002	7.5310278E-003	1.3801648E-003	7.6564504E-003	1.0385003E+001	8.091832067329995E-007
1.1217711E+004	1.2878847E+002	2.5876472E+001	1.3136234E+002	-1.1360733E+001	2.429249608711689E+001	-5.2858844E-002	3.7778732E-003	5.4829067E-001	2.1275476E-002	1.000000000000000E+000	11	1.3081942E-001	9.9586707E-004	7.863893566815548E-005	0.0000000E+000	-1.0012865E+002	7.4633751E-003	1.4995582E-003	7.6125320E-003	1.1360733E+001	-2.654116196665454E-007
1.0002229E+004	1.2918285E+002	2.8482803E+001	1.3228560E+002	-1.2433888E+001	2.475147690894664E+001	-5.2866451E-002	3.6900262E-003	5.5865103E-001	2.5898876E-002	1.000000000000000E+000	11	1.3207430E-001	9.9840271E-004	7.876400649045576E-005	0.0000000E+000	-1.0006450E+002	7.3820967E-003	1.6276372E-003	7.5594019E-003	1.2433888E+001	1.250708223002843E-007
8.9149297E+003	1.2963235E+002	3.1415543E+001	1.3338472E+002	-1.3622619E+001	2.523390127855237E+001	-5.2810635E-002	4.0402957E-003	5.6827384E-001	3.1523511E-002	1.000000000000000E+000	11	1.3306347E-001	9.9759153E-004	7.923078545479237E-005	0.0000000E+000	-1.0012865E+002	7.2862026E-003	1.7657629E-003	7.4971104E-003	1.3622619E+001	4.667789643366023E-007
7.9439976E+003	1.3017615E+002	3.4678337E+001	1.3471606E+002	-1.4916909E+001	2.575997210352216E+001	-5.2776836E-002	4.1813729E-003	5.7772708E-001	3.8282521E-002	1.000000000000000E+000	11	1.3384336E-001	9.9352188E-004	7.918526539880178E-005	0.0000000E+000	-1.0012064E+002	7.1728649E-003	1.9108187E-003	7.4230195E-003	1.4916909E+001	-4.552005599058496E-008
7.0822334E+003	1.3080540E+002	3.8316006E+001	1.3630176E+002	-1.6326559E+001	2.633688247759710E+001	-5.2769583E-002	4.2560049E-003	5.8650225E-001	4.6347596E-002	1.000000000000000E+000	11	1.3443238E-001	9.8628493E-004	8.054890597411253E-005	0.0000000E+000	-1.0012865E+002	7.0408122E-003	2.0624208E-003	7.3366626E-003	1.6326559E+001	1.363640575310752E-006
6.3077344E+003	1.3153909E+002	4.2382442E+001	1.3819843E+002	-1.7859158E+001	2.697155738770380E+001	-5.2765090E-002	4.0045632E-003	5.9533411E-001	5.5992071E-002	1.000000000000000E+000	11	1.3487659E-001	9.7596337E-004	8.118272970901146E-005	0.0000000E+000	-1.0008054E+002	6.8872948E-003	2.2191152E-003	7.2359727E-003	1.7859158E+001	6.338237348989278E-007
5.6210552E+003	1.3237357E+002	4.6881672E+001	1.4043024E+002	-1.9502205E+001	2.767225443435018E+001	-5.2754387E-002	4.0257820E-003	6.0394746E-001	6.7310698E-002	1.000000000000000E+000	11	1.3518590E-001	9.6265523E-004	8.107162394447125E-005	0.0000000E+000	-1.0010460E+002	6.7124334E-003	2.3772882E-003	7.1209734E-003	1.9502205E+001	-1.111057645402052E-007
5.0116035E+003	1.3332463E+002	5.1817326E+001	1.4304018E+002	-2.1238880E+001	2.843267121716781E+001	-5.2741580E-002	4.1279583E-003	6.1287010E-001	8.0427088E-002	1.000000000000000E+000	11	1.3538429E-001	9.4647735E-004	8.159917165864237E-005	0.0000000E+000	-1.0012865E+002	6.5161986E-003	2.5325553E-003	6.9910428E-003	2.1238880E+001	5.275477141711130E-007
4.4664292E+003	1.3441251E+002	5.7281677E+001	1.4610925E+002	-2.3081923E+001	2.919269546659780E+001	-5.2735467E-002	4.1502924E-003	6.2207669E-001	9.5613666E-002	1.000000000000000E+000	11	1.3551742E-001	9.2750747E-004	8.167129407557028E-005	0.0000000E+000	-1.0008054E+002	6.2962836E-003	2.6832449E-003	6.8441937E-003	2.3081923E+001	7.212241692790820E-008
3.9812742E+003	1.3572040E+002	6.3312435E+001	1.4976144E+002	-2.5008659E+001	2.995270294269721E+001	-5.2770700E-002	3.9115059E-003	6.3140649E-001	1.1284622E-001	1.000000000000000E+000	11	1.3556859E-001	9.0523023E-004	8.228476714432489E-005	0.0000000E+000	-1.0007252E+002	6.0512498E-003	2.8228576E-003	6.6772862E-003	2.5008659E+001	6.134730687546092E-007
3.5465955E+003	1.3724107E+002	6.9997261E+001	1.5406079E+002	-2.7023012E+001	3.071293244545814E+001	-5.2744247E-002	3.8458069E-003	6.4110243E-001	1.3234432E-001	1.000000000000000E+000	11	1.3555437E-001	8.7987591E-004	8.252791743759251E-005	0.0000000E+000	-1.0008054E+002	5.7822899E-003	2.9491498E-003	6.4909444E-003	2.7023012E+001	2.431502932676222E-007
3.1610112E+003	1.3900882E+002	7.7331741E+001	1.5907121E+002	-2.9087545E+001	3.147268952156446E+001	-5.2742384E-002	4.0360158E-003	6.5108293E-001	1.5387523E-001	1.000000000000000E+000	11	1.3551293E-001	8.5190107E-004	8.320727340352945E-005	0.0000000E+000	-1.0008855E+002	5.4936269E-003	3.0561497E-003	6.2864926E-003	2.9087545E+001	6.793559659369413E-007
2.8172952E+003	1.4097871E+002	8.5354500E+001	1.6480409E+002	-3.1192493E+001	3.223292982432758E+001	-5.2759048E-002	3.7505133E-003	6.6185272E-001	1.7753264E-001	1.000000000000000E+000	11	1.3542564E-001	8.2173717E-004	8.445344758208457E-005	0.0000000E+000	-1.0007252E+002	5.1906002E-003	3.1426097E-003	6.0678106E-003	3.1192493E+001	1.246174178555118E-006
2.5108032E+003	1.4325320E+002	9.4201118E+001	1.7145067E+002	-3.3328308E+001	3.299270295375754E+001	-5.2736361E-002	3.9840885E-003	6.7290133E-001	2.0313518E-001	1.000000000000000E+000	11	1.3531257E-001	7.8922161E-004	8.587663195266780E-005	0.0000000E+000	-1.0006450E+002	4.8733316E-003	3.2046284E-003	5.8325813E-003	3.3328308E+001	1.423184370583230E-006
2.2378516E+003	1.4580423E+002	1.0386913E+002	1.7901863E+002	-3.5465599E+001	3.375292410983820E+001	-5.2757874E-002	3.8780011E-003	6.8470323E-001	2.3050421E-001	1.000000000000000E+000	11	1.3518959E-001	7.5517053E-004	8.675095971621745E-005	0.0000000E+000	-1.0003242E+002	4.5496048E-003	3.2410820E-003	5.5860109E-003	3.5465599E+001	8.743277635496510E-007
1.9956389E+003	1.4860387E+002	1.1438326E+002	1.8752771E+002	-3.7586174E+001	3.451267971928610E+001	-5.2752655E-002	4.1694581E-003	6.9722939E-001	2.5939986E-001	1.000000000000000E+000	11	1.3505378E-001	7.2018040E-004	8.793378645365414E-005	0.0000000E+000	-1.0011262E+002	4.2257053E-003	3.2526071E-003	5.3325454E-003	3.7586174E+001	1.182826737436692E-006
1.7782927E+003	1.5178006E+002	1.2601053E+002	1.9727098E+002	-3.9700066E+001	3.527195964867133E+001	-5.2750416E-002	4.1407952E-003	7.1024799E-001	2.8979927E-001	1.000000000000000E+000	11	1.3491251E-001	6.8389432E-004	8.895554197388265E-005	0.0000000E+000	-1.0009658E+002	3.9002129E-003	3.2380265E-003	5.0691692E-003	3.9700066E+001	1.021755520228508E-006
1.5855076E+003	1.5524925E+002	1.3859789E+002	2.0811464E+002	-4.1756702E+001	3.603167728477274E+001	-5.2755881E-002	4.2649326E-003	7.2426116E-001	3.2122043E-001	1.000000000000000E+000	11	1.3477650E-001	6.4760703E-004	9.036599295053505E-005	0.0000000E+000	-1.0012064E+002	3.5844641E-003	3.2000099E-003	4.8050438E-003	4.1756702E+001	1.410450976652400E-006
1.4118373E+003	1.5906720E+002	1.5249481E+002	2.2035663E+002	-4.3791527E+001	3.679321854756563E+001	-5.2760281E-002	4.1499091E-003	7.3923147E-001	3.5402858E-001	1.000000000000000E+000	11	1.3464513E-001	6.1103282E-004	9.133903281278052E-005	0.0000000E+000	-1.0006450E+002	3.2758832E-003	3.1405292E-003	4.5380979E-003	4.3791527E+001	9.730398622454683E-007
1.2587914E+003	1.6336362E+002	1.6761424E+002	2.3405598E+002	-4.5735786E+001	3.755292730368092E+001	-5.2754797E-002	4.0624347E-003	7.5431967E-001	3.8684571E-001	1.000000000000000E+000	11	1.3452561E-001	5.7475828E-004	9.274413209629953E-005	0.0000000E+000	-1.0007252E+002	2.9820562E-003	3.0596475E-003	4.2724819E-003	4.5735786E+001	1.405099283519019E-006
1.1217948E+003	1.6788641E+002	1.8410609E+002	2.4916040E+002	-4.7638302E+001	3.831141024632961E+001	-5.2764438E-002	4.0832795E-003	7.7061689E-001	4.2074293E-001	1.000000000000000E+000	11	1.3441527E-001	5.3947285E-004	9.320796854924103E-005	0.0000000E+000	-1.0003242E+002	2.7043165E-003	2.9655832E-003	4.0134788E-003	4.7638302E+001	4.638364529414960E-007
1.0003201E+003	1.7300996E+002	2.0218408E+002	2.6610309E+002	-4.9446224E+001	3.907069049578422E+001	-5.2765742E-002	3.9289873E-003	7.8692657E-001	4.5428488E-001	1.000000000000000E+000	11	1.3431388E-001	5.0474377E-004	9.410459096275169E-005	0.0000000E+000	-1.0008855E+002	2.4432691E-003	2.8552697E-003	3.7579420E-003	4.9446224E+001	8.966224135106642E-007
8.9142657E+002	1.7869373E+002	2.2218649E+002	2.8512854E+002	-5.1191982E+001	3.982945306508918E+001	-5.2759010E-002	3.9546718E-003	8.0355740E-001	4.8794493E-001	1.000000000000000E+000	11	1.3421747E-001	4.7072620E-004	9.501367705919378E-005	0.0000000E+000	-1.0007252E+002	2.1980011E-003	2.7329789E-003	3.5071902E-003	5.1191982E+001	9.090860964420833E-007
7.9423773E+002	1.8467409E+002	2.4392667E+002	3.0594891E+002	-5.2871052E+001	4.058895531453891E+001	-5.2757576E-002	4.0549883E-003	8.2150525E-001	5.2219301E-001	1.000000000000000E+000	11	1.3414228E-001	4.3844667E-004	9.563431871616498E-005	0.0000000E+000	-1.0006450E+002	1.9729140E-003	2.6059221E-003	3.2685194E-003	5.2871052E+001	6.206416569711995E-007
7.0750946E+002	1.9171936E+002	2.6858627E+002	3.2999228E+002	-5.4480408E+001	4.160344560272642E+001	-5.2771036E-002	4.0628295E-004	8.3753717E-001	5.5483538E-001	1.000000000000000E+000	12	1.3777840E-001	4.1752006E-004	9.671180984284668E-005	0.0000000E+000	-1.0008855E+002	1.7605906E-003	2.4664726E-003	3.0303739E-003	5.4480408E+001	1.077491126681699E-006
6.3100964E+002	1.9897397E+002	2.9484454E+002	3.5570206E+002	-5.5986805E+001	4.236144467871054E+001	-5.2776124E-002	4.0993397E-004	8.5544294E-001	5.8776605E-001	1.000000000000000E+000	12	1.3713109E-001	3.8552235E-004	9.694357709585913E-005	0.0000000E+000	-1.0008054E+002	1.5726190E-003	2.3303456E-003	2.8113415E-003	5.5986805E+001	2.317672530124579E-007
5.6233929E+002	2.0685930E+002	3.2385684E+002	3.8428378E+002	-5.7432129E+001	4.311789631465217E+001	-5.2775733E-002	4.0035785E-004	8.7391382E-001	6.2068415E-001	1.000000000000000E+000	12	1.3656931E-001	3.5538661E-004	9.676244091664334E-005	0.0000000E+000	-1.0012064E+002	1.4007833E-003	2.1930521E-003	2.6022436E-003	5.7432129E+001	-1.811361792157892E-007
5.0144415E+002	2.1539478E+002	3.5557339E+002	4.1572510E+002	-5.8793884E+001	4.387517272392870E+001	-5.2777003E-002	4.0689617E-004	8.9262354E-001	6.5300173E-001	1.000000000000000E+000	12	1.3608581E-001	3.2734565E-004	9.711083001439490E-005	0.0000000E+000	-1.0007252E+002	1.2463003E-003	2.0573908E-003	2.4054358E-003	5.8793884E+001	3.483890977515542E-007
4.4685895E+002	2.2476982E+002	3.9072137E+002	4.5076010E+002	-6.0089523E+001	4.463192923989845E+001	-5.2770346E-002	4.0931700E-004	9.1155422E-001	6.8489802E-001	1.000000000000000E+000	12	1.3568242E-001	3.0100805E-004	9.688116884413588E-005	0.0000000E+000	-1.0007252E+002	1.1062342E-003	1.9229864E-003	2.2184749E-003	6.0089523E+001	-2.296611702590185E-007
3.9808920E+002	2.3495436E+002	4.2945474E+002	4.8952521E+002	-6.1316963E+001	4.539472596948326E+001	-5.2777413E-002	3.9154466E-004	9.3094134E-001	7.1648484E-001	1.000000000000000E+000	12	1.3533905E-001	2.7647003E-004	9.694696232426334E-005	0.0000000E+000	-1.0010460E+002	9.8046800E-004	1.7921209E-003	2.0427958E-003	6.1316963E+001	6.579348012746272E-008
3.5465955E+002	2.4603470E+002	4.7212427E+002	5.3238556E+002	-6.2474957E+001	4.615496432557120E+001	-5.2766562E-002	4.0979899E-004	9.5050007E-001	7.4750185E-001	1.000000000000000E+000	12	1.3505352E-001	2.5367615E-004	9.691512737064962E-005	0.0000000E+000	-1.0008855E+002	8.6804811E-004	1.6657269E-003	1.8783379E-003	6.2474957E+001	-3.183495361372228E-008
3.1631586E+002	2.5794003E+002	5.1870892E+002	5.7930304E+002	-6.3560074E+001	4.691193062820821E+001	-5.2775435E-002	3.9184070E-004	9.7000825E-001	7.7769852E-001	1.000000000000000E+000	12	1.3481492E-001	2.3271916E-004	9.713268495343840E-005	0.0000000E+000	-1.0004846E+002	7.6861196E-004	1.5456533E-003	1.7262122E-003	6.3560074E+001	2.175575827887799E-007
2.8189429E+002	2.7097113E+002	5.7029425E+002	6.3139600E+002	-6.4585609E+001	4.766742005074047E+001	-5.2775472E-002	4.0916482E-004	9.8999923E-001	8.0766118E-001	1.000000000000000E+000	12	1.3461317E-001	2.1319928E-004	9.720257573480477E-005	0.0000000E+000	-1.0011262E+002	6.7970343E-004	1.4305246E-003	1.5837922E-003	6.4585609E+001	6.989078136636915E-008
2.5104436E+002	2.8520364E+002	6.2746155E+002	6.8923804E+002	-6.5556511E+001	4.842393158000777E+001	-5.2777339E-002	3.8707163E-004	1.0103749E+000	8.3737171E-001	1.000000000000000E+000	12	1.3444993E-001	1.9507039E-004	9.750500850019670E-005	0.0000000E+000	-1.0007252E+002	6.0036668E-004	1.3208351E-003	1.4508775E-003	6.5556511E+001	3.024327653919340E-007
2.2392513E+002	3.0033755E+002	6.8951758E+002	7.5208850E+002	-6.6463196E+001	4.918672966960003E+001	-5.2780546E-002	3.9118814E-004	1.0307943E+000	8.6641264E-001	1.000000000000000E+000	12	1.3431068E-001	1.7858361E-004	9.777026322805897E-005	0.0000000E+000	-1.0014469E+002	5.3097215E-004	1.2190104E-003	1.3296307E-003	6.6463196E+001	2.652547278622690E-007
1.9955299E+002	3.1693326E+002	7.5876410E+002	8.2229535E+002	-6.7329865E+001	4.994821637237328E+001	-5.2777525E-002	3.8433296E-004	1.0511267E+000	8.9497924E-001	1.000000000000000E+000	12	1.3419518E-001	1.6319584E-004	9.793543671233257E-005	0.0000000E+000	-1.0010460E+002	4.6871862E-004	1.1221505E-003	1.2161081E-003	6.7329865E+001	1.651734842736006E-007
1.7778128E+002	3.3511072E+002	8.3538293E+002	9.0009100E+002	-6.8141998E+001	5.071626456888043E+001	-5.2779816E-002	4.0679786E-004	1.0716391E+000	9.2309600E-001	1.000000000000000E+000	12	1.3409859E-001	1.4898337E-004	9.796630200358171E-005	0.0000000E+000	-1.0008054E+002	4.1363327E-004	1.0311285E-003	1.1109988E-003	6.8141998E+001	3.086529124913227E-008
1.5842838E+002	3.5450067E+002	9.1945874E+002	9.8543146E+002	-6.8915672E+001	5.148273279197747E+001	-5.2769918E-002	4.0594052E-004	1.0925843E+000	9.5118845E-001	1.000000000000000E+000	12	1.3402343E-001	1.3600482E-004	9.809117949667376E-005	0.0000000E+000	-1.0008054E+002	3.6506003E-004	9.4684621E-004	1.0147840E-003	6.8915672E+001	1.248774930920511E-007
1.4131134E+002	3.7537308E+002	1.0113657E+003	1.0787797E+003	-6.9637360E+001	5.223591490773833E+001	-5.2781273E-002	3.8906228E-004	1.1136146E+000	9.7878176E-001	1.000000000000000E+000	12	1.3395882E-001	1.2417625E-004	9.808120364195242E-005	0.0000000E+000	-1.0006450E+002	3.2255042E-004	8.6904591E-004	9.2697336E-004	6.9637360E+001	-9.975854721336417E-009
1.2584569E+002	3.9824359E+002	1.1144490E+003	1.1834672E+003	-7.0335869E+001	5.299139411692158E+001	-5.2776221E-002	3.9319796E-004	1.1348059E+000	1.0063049E+000	1.000000000000000E+000	12	1.3390030E-001	1.1314239E-004	9.825238663960570E-005	0.0000000E+000	-1.0005648E+002	2.8433895E-004	7.9569715E-004	8.4497489E-004	7.0335869E+001	1.711829976532811E-007
1.1218996E+002	4.2261478E+002	1.2271630E+003	1.2978953E+003	-7.0997131E+001	5.373686716571683E+001	-5.2775715E-002	4.3142261E-004	1.1560162E+000	1.0334492E+000	1.000000000000000E+000	12	1.3386291E-001	1.0313845E-004	9.845688893391323E-005	0.0000000E+000	-1.0007252E+002	2.5087965E-004	7.2848890E-004	7.7047822E-004	7.0997131E+001	2.045022943075335E-007
1.0003201E+002	4.4907477E+002	1.3517722E+003	1.4244143E+003	-7.1622902E+001	5.449669085514324E+001	-5.2774318E-002	4.2335643E-004	1.1770031E+000	1.0600150E+000	1.000000000000000E+000	12	1.3382597E-001	9.3951581E-005	9.857028813627200E-005	0.0000000E+000	-1.0011262E+002	2.2133290E-004	6.6624023E-004	7.0204295E-004	7.1622902E+001	1.133992023587683E-007
8.9115974E+001	4.7820975E+002	1.4911866E+003	1.5659893E+003	-7.2219437E+001	5.526274774485501E+001	-5.2781235E-002	3.7810879E-004	1.1976573E+000	1.0859729E+000	1.000000000000000E+000	12	1.3379613E-001	8.5438725E-005	9.859415649762296E-005	0.0000000E+000	-1.0012064E+002	1.9500281E-004	6.0807128E-004	6.3857401E-004	7.2219437E+001	2.386836135096111E-008
7.9415527E+001	5.0953055E+002	1.6453607E+003	1.7224498E+003	-7.2793442E+001	5.602723770114244E+001	-5.2780282E-002	3.6797501E-004	1.2180176E+000	1.1114314E+000	1.000000000000000E+000	12	1.3377717E-001	7.7666802E-005	9.876374721538823E-005	0.0000000E+000	-1.0011262E+002	1.7174224E-004	5.5458484E-004	5.8056845E-004	7.2793442E+001	1.695907177652622E-007
7.0838745E+001	5.4303845E+002	1.8142474E+003	1.8937751E+003	-7.3336571E+001	5.677840440344880E+001	-5.2785318E-002	3.9431485E-004	1.2383766E+000	1.1365511E+000	1.000000000000000E+000	12	1.3376017E-001	7.0631497E-005	9.880737665714252E-005	0.0000000E+000	-1.0009658E+002	1.5141667E-004	5.0587091E-004	5.2804581E-004	7.3336571E+001	4.362944175429243E-008
6.3082302E+001	5.7864661E+002	2.0026431E+003	2.0845649E+003	-7.3883804E+001	5.755881233391119E+001	-5.2777767E-002	4.0573344E-004	1.2598217E+000	1.1627471E+000	1.000000000000000E+000	12	1.3374200E-001	6.4158230E-005	9.889129150064482E-005	0.0000000E+000	-1.0007252E+002	1.3316267E-004	4.6086390E-004	4.7971640E-004	7.3883804E+001	8.391484350229637E-008
5.6241817E+001	6.1774884E+002	2.2094951E+003	2.2942280E+003	-7.4379631E+001	5.830235130249639E+001	-5.2778922E-002	3.9450047E-004	1.2807600E+000	1.1879022E+000	1.000000000000000E+000	12	1.3372427E-001	5.8287260E-005	9.893889512967589E-005	0.0000000E+000	-1.0009658E+002	1.1736506E-004	4.1977820E-004	4.3587646E-004	7.4379631E+001	4.760362903107225E-008
5.0144413E+001	6.5975940E+002	2.4374426E+003	2.5251553E+003	-7.4854286E+001	5.905915909845498E+001	-5.2780509E-002	3.9319650E-004	1.3021564E+000	1.2132653E+000	1.000000000000000E+000	12	1.3372076E-001	5.2955456E-005	9.900370889405884E-005	0.0000000E+000	-1.0004044E+002	1.0346877E-004	3.8225943E-004	3.9601524E-004	7.4854286E+001	6.481376438295054E-008
4.4671219E+001	7.0576721E+002	2.6964260E+003	2.7872605E+003	-7.5332352E+001	6.007522816004348E+001	-5.2774206E-002	4.0490431E-005	1.3213072E+000	1.2365899E+000	1.000000000000000E+000	13	1.3403136E-001	4.8087128E-005	9.916466464153270E-005	0.0000000E+000	-1.0008054E+002	9.0846101E-005	3.4708306E-004	3.5877523E-004	7.5332352E+001	1.609557474738644E-007
3.9808922E+001	7.5512109E+002	2.9804797E+003	3.0746492E+003	-7.5782951E+001	6.083770246298809E+001	-5.2777134E-002	3.8642829E-005	1.3413854E+000	1.2604765E+000	1.000000000000000E+000	13	1.3396385E-001	4.3570453E-005	9.915196156279166E-005	0.0000000E+000	-1.0008054E+002	7.9877682E-005	3.1527900E-004	3.2524037E-004	7.5782951E+001	-1.270307874104567E-008
3.5465305E+001	8.0836261E+002	3.2963284E+003	3.3939993E+003	-7.6221199E+001	6.158813807190745E+001	-5.2771389E-002	3.9216444E-005	1.3614007E+000	1.2841727E+000	1.000000000000000E+000	13	1.3390741E-001	3.9454164E-005	9.920378337844522E-005	0.0000000E+000	-1.0008054E+002	7.0175069E-005	2.8615873E-004	2.9463766E-004	7.6221199E+001	5.182181565356397E-008
3.1629551E+001	8.6577332E+002	3.6429221E+003	3.7443884E+003	-7.6631157E+001	6.231244834631798E+001	-5.2782595E-002	3.9937142E-005	1.3812656E+000	1.3074203E+000	1.000000000000000E+000	13	1.3386634E-001	3.5751189E-005	9.918799114386355E-005	0.0000000E+000	-1.0009658E+002	6.1750776E-005	2.5982931E-004	2.6706632E-004	7.6631157E+001	-1.579223458166718E-008
2.8170074E+001	9.2835675E+002	4.0329014E+003	4.1383740E+003	-7.7036583E+001	6.311776273128635E+001	-5.2782260E-002	4.4036253E-005	1.4009238E+000	1.3304245E+000	1.000000000000000E+000	13	1.3382430E-001	3.2337412E-005	9.911874604056721E-005	0.0000000E+000	-1.0009658E+002	5.4207008E-005	2.3548222E-004	2.4164080E-004	7.7036583E+001	-6.924510329634457E-008
2.5104435E+001	9.9649408E+002	4.4646694E+003	4.5745244E+003	-7.7418060E+001	6.387390060719918E+001	-5.2774653E-002	4.0965089E-005	1.4199740E+000	1.3525929E+000	1.000000000000000E+000	13	1.3379452E-001	2.9247743E-005	9.911966929133753E-005	0.0000000E+000	-1.0002441E+002	4.7619291E-005	2.1335234E-004	2.1860196E-004	7.7418060E+001	9.232507703228060E-010
2.2385387E+001	1.0691245E+003	4.9409443E+003	5.0552900E+003	-7.7790535E+001	6.456040874644532E+001	-5.2777376E-002	3.5567562E-005	1.4389495E+000	1.3745905E+000	1.000000000000000E+000	13	1.3377391E-001	2.6462163E-005	9.920895495424681E-005	0.0000000E+000	-1.0002441E+002	4.1834643E-005	1.9333824E-004	1.9781258E-004	7.7790535E+001	8.928566290928057E-008
1.9955299E+001	1.1484976E+003	5.4733042E+003	5.5925044E+003	-7.8149208E+001	6.532219024930964E+001	-5.2777246E-002	3.8446749E-005	1.4571770E+000	1.3957217E+000	1.000000000000000E+000	13	1.3375884E-001	2.3917521E-005	9.922258851441176E-005	0.0000000E+000	-1.0007252E+002	3.6721245E-005	1.7499954E-004	1.7881076E-004	7.8149208E+001	1.363356016494436E-008
1.7796129E+001	1.2357333E+003	6.0614863E+003	6.1861665E+003	-7.8477219E+001	6.616652631605393E+001	-5.2780844E-002	3.8890914E-005	1.4754193E+000	1.4165454E+000	1.000000000000000E+000	13	1.3373977E-001	2.1619167E-005	9.924161667853554E-005	0.0000000E+000	-1.0001638E+002	3.2291005E-005	1.5839298E-004	1.6165100E-004	7.8477219E+001	1.902816412378480E-008
1.5857576E+001	1.3319484E+003	6.7209155E+003	6.8516270E+003	-7.8790390E+001	6.688794973702170E+001	-5.2781962E-002	3.9945968E-005	1.4933268E+000	1.4368926E+000	1.000000000000000E+000	13	1.3372828E-001	1.9517742E-005	9.916725268980049E-005	0.0000000E+000	-1.0004846E+002	2.8372659E-005	1.4316637E-004	1.4595073E-004	7.8790390E+001	-7.436398873505339E-008
1.4118974E+001	1.4365344E+003	7.4585464E+003	7.5956270E+003	-7.9098190E+001	6.769025166842039E+001	-5.2778848E-002	4.2497475E-005	1.5113422E+000	1.4572831E+000	1.000000000000000E+000	13	1.3371854E-001	1.7604674E-005	9.925901643016712E-005	0.0000000E+000	-1.0014469E+002	2.4899387E-005	1.2927869E-004	1.3165470E-004	7.9098190E+001	9.176374036662708E-008
1.2600808E+001	1.5517103E+003	8.2635869E+003	8.4080127E+003	-7.9365021E+001	6.858086512409500E+001	-5.2786369E-002	3.6947324E-005	1.5284568E+000	1.4763986E+000	1.000000000000000E+000	13	1.3370779E-001	1.5902426E-005	9.926378929935324E-005	0.0000000E+000	-1.0011262E+002	2.1949469E-005	1.1689122E-004	1.1893417E-004	7.9365021E+001	4.772869186125419E-009
1.1224856E+001	1.6786244E+003	9.1758398E+003	9.3281201E+003	-7.9632973E+001	6.926491392991738E+001	-5.2781831E-002	4.2318617E-005	1.5452313E+000	1.4951917E+000	1.000000000000000E+000	13	1.3370287E-001	1.4333314E-005	9.925704031114613E-005	0.0000000E+000	-1.0003242E+002	1.9291463E-005	1.0545267E-004	1.0720274E-004	7.9632973E+001	-6.748988207107721E-009
1.0003201E+001	1.8251556E+003	1.0181078E+004	1.0343382E+004	-7.9836578E+001	7.002568247273302E+001	-5.2781124E-002	4.7160902E-005	1.5627424E+000	1.5140834E+000	1.000000000000000E+000	13	1.3369435E-001	1.2925593E-005	9.918818427886910E-005	0.0000000E+000	-1.0008054E+002	1.7059834E-005	9.5163123E-005	9.6680182E-005	7.9836578E+001	-6.885603227703234E-008
8.9183798E+000	1.9781273E+003	1.1301111E+004	1.1472930E+004	-8.0071625E+001	7.087003427281161E+001	-5.2781850E-002	3.7394166E-005	1.5791123E+000	1.5321690E+000	1.000000000000000E+000	13	1.3369218E-001	1.1652836E-005	9.930345868310481E-005	0.0000000E+000	-1.0005648E+002	1.5028153E-005	8.5856365E-005	8.7161694E-005	8.0071625E+001	1.152744042357109E-007
7.9395342E+000	2.1548789E+003	1.2560217E+004	1.2743726E+004	-8.0264893E+001	7.180871037075121E+001	-5.2779082E-002	3.9828359E-005	1.5959820E+000	1.5503489E+000	1.000000000000000E+000	13	1.3368863E-001	1.0490545E-005	9.921180088133931E-005	0.0000000E+000	-1.0008054E+002	1.3268751E-005	7.7340024E-005	7.8469988E-005	8.0264893E+001	-9.165780176550098E-008
7.0765405E+000	2.3511628E+003	1.3954705E+004	1.4151388E+004	-8.0436325E+001	7.236702047724975E+001	-5.2786306E-002	4.0364743E-005	1.6116787E+000	1.5671903E+000	1.000000000000000E+000	13	1.3368383E-001	9.4466941E-006	9.922561576408488E-005	0.0000000E+000	-1.0011262E+002	1.1740446E-005	6.9682326E-005	7.0664450E-005	8.0436325E+001	1.381488274556535E-008
6.3105822E+000	2.6252134E+003	1.5536536E+004	1.5756767E+004	-8.0409302E+001	7.298718285336508E+001	-5.2795161E-002	7.4793934E-005	1.6232914E+000	1.5782315E+000	1.000000000000000E+000	13	1.3366824E-001	8.4832282E-006	9.926884251461685E-005	0.0000000E+000	-1.0004044E+002	1.0573785E-005	6.2577754E-005	6.3464795E-005	8.0409302E+001	4.322675053197874E-008
5.6205034E+000	2.8301643E+003	1.7239990E+004	1.7470750E+004	-8.0677322E+001	7.367264368595352E+001	-5.2781869E-002	4.1841613E-005	1.6425097E+000	1.5994065E+000	1.000000000000000E+000	13	1.3368563E-001	7.6519691E-006	9.933578776213391E-005	0.0000000E+000	-1.0012865E+002	9.2723212E-006	5.6482502E-005	5.7238529E-005	8.0677322E+001	6.694524751705482E-008
5.0144415E+000	3.1003169E+003	1.9196574E+004	1.9445318E+004	-8.0825737E+001	7.443016297524446E+001	-5.2765314E-002	2.3265542E-005	1.6533844E+000	1.6113548E+000	1.000000000000000E+000	13	1.3368365E-001	6.8748500E-006	9.936966486583374E-005	0.0000000E+000	-1.0008054E+002	8.1992875E-006	5.0768416E-005	5.1426261E-005	8.0825737E+001	3.387710369982821E-008
4.4693937E+000	3.4898931E+003	2.1301658E+004	2.1585643E+004	-8.0695778E+001	7.527151240184321E+001	-5.2770805E-002	1.7764769E-005	1.6716992E+000	1.6280020E+000	1.000000000000000E+000	13	1.3367730E-001	6.1928804E-006	9.930350021332723E-005	0.0000000E+000	-1.0008855E+002	7.4900036E-006	4.5717599E-005	4.6327088E-005	8.0695778E+001	-6.616465250650918E-008
3.9778514E+000	3.7849929E+003	2.3700576E+004	2.4000906E+004	-8.0926460E+001	7.620816655302770E+001	-5.2777831E-002	4.1966327E-005	1.6881562E+000	1.6461719E+000	1.000000000000000E+000	13	1.3368456E-001	5.5699797E-006	9.926684915933543E-005	0.0000000E+000	-1.0002441E+002	6.5706704E-006	4.1143729E-005	4.1665095E-005	8.0926460E+001	-3.665105399180296E-008
3.5511365E+000	4.2714302E+003	2.6241783E+004	2.6587145E+004	-8.0754929E+001	7.724937246911577E+001	-5.2780144E-002	5.0954495E-005	1.7078882E+000	1.6638061E+000	1.000000000000000E+000	13	1.3367453E-001	5.0277881E-006	9.937712876001367E-005	0.0000000E+000	-1.0004846E+002	6.0426819E-006	3.7123587E-005	3.7612161E-005	8.0754929E+001	1.102796006782465E-007
3.1603966E+000	4.6743105E+003	2.9263346E+004	2.9634314E+004	-8.0924660E+001	7.877620310164639E+001	-5.2772276E-002	-4.4798760E-008	1.7208958E+000	1.6780804E+000	1.000000000000000E+000	14	1.3370007E-001	4.5116640E-006	9.937354501493852E-005	0.0000000E+000	-1.0008855E+002	5.3226499E-006	3.3322242E-005	3.3744665E-005	8.0924660E+001	-3.583745075152220E-009
2.8183618E+000	5.3402378E+003	3.2447189E+004	3.2883707E+004	-8.0653908E+001	8.007168708322570E+001	-5.2770816E-002	-2.4899725E-006	1.7403889E+000	1.6944896E+000	1.000000000000000E+000	14	1.3369492E-001	4.0656887E-006	9.926760806218894E-005	0.0000000E+000	-1.0009658E+002	4.9385444E-006	3.0006513E-005	3.0410196E-005	8.0653908E+001	-1.059369527495847E-007
2.5136740E+000	5.9805342E+003	3.6161605E+004	3.6652809E+004	-8.0609222E+001	8.151571600514581E+001	-5.2776068E-002	1.7581175E-005	1.7509085E+000	1.7042934E+000	1.000000000000000E+000	14	1.3369119E-001	3.6475019E-006	9.931215269472766E-005	0.0000000E+000	-1.0007252E+002	4.4516960E-006	2.6917403E-005	2.7283038E-005	8.0609222E+001	4.454463253872256E-008
2.2398219E+000	6.6025166E+003	4.0074465E+004	4.0614727E+004	-8.0644211E+001	8.313032778844354E+001	-5.2772474E-002	-7.4277585E-007	1.7731230E+000	1.7262644E+000	1.000000000000000E+000	14	1.3368778E-001	3.2916084E-006	9.936554968403734E-005	0.0000000E+000	-1.0010460E+002	4.0026039E-006	2.4294091E-005	2.4621611E-005	8.0644211E+001	5.339698930967882E-008
1.9970604E+000	7.4429458E+003	4.4388387E+004	4.5008070E+004	-8.0481323E+001	8.493371416749142E+001	-5.2765187E-002	4.7018098E-006	1.7953931E+000	1.7462945E+000	1.000000000000000E+000	14	1.3368483E-001	2.9702412E-006	9.925573997930546E-005	0.0000000E+000	-1.0009658E+002	3.6742099E-006	2.1912330E-005	2.2218237E-005	8.0481323E+001	-1.098097047318744E-007
1.7796129E+000	8.4762930E+003	4.9243172E+004	4.9967363E+004	-8.0233307E+001	8.695184959666221E+001	-5.2769676E-002	7.6803062E-006	1.8161368E+000	1.7638748E+000	1.000000000000000E+000	14	1.3368201E-001	2.6753867E-006	9.938295148140787E-005	0.0000000E+000	-1.0005648E+002	3.3949489E-006	1.9723007E-005	2.0013063E-005	8.0233307E+001	1.272115021024061E-007