EC-Lab ASCII FILE
Nb header lines : 75                          

Potentio Electrochemical Impedance Spectroscopy

Run on channel : 4 (SN 4192)
User : 
CE vs. WE compliance from -10 V to 10 V
Electrode connection : standard
Ewe ctrl range : min = -10.00 V, max = 10.00 V
Safety Limits :
	Do not start on E overload
Acquisition started on : 01/24/2020 09:53:01
Technique started on : 01/24/2020 09:53:02
Saved on :
	File : DE_40_12_60.mpr
	Directory : P:\Chemistry\Data\VMP3\Kyler\DOE\DE_40\2ND 60C\
	Host : 10.0.4.99
Device : VMP3 (SN 0183)
Address : USB
EC-Lab for windows v11.33 (software)
Internet server v11.32 (firmware)
Command interpretor v11.33 (firmware)
Electrode material : 
Initial state : 
Electrolyte : 
Comments : 
Electrode surface area : 0.001 cm²
Characteristic mass : 0.001 g
Equivalent Weight : 0.000 g/eq.
Density : 0.000 g/cm3
Record Analogic IN 1
Cycle Definition : Charge/Discharge alternance
External device configuration :
   device type : Thermostat
   device name : Other
   Analog OUT : 
      mode : E/V
      unit : T/°C
      max : 400.000 at 5.000 V
      min : -100.000 at 0.000 V
      current : 0.000
   Analog IN 1 : 
      unit : T/°C
      max : 400.000 at 5.000 V
      min : -100.000 at 0.000 V
Mode                Single sine         
E (V)               0.0000              
vs.                 Eoc                 
tE (h:m:s)          0:00:0.0000         
record              0                   
dI                  1.000               
unit dI             mA                  
dt (s)              0.000               
fi                  1.000               
unit fi             MHz                 
ff                  1.000               
unit ff             Hz                  
Nd                  20                  
Points              per decade          
spacing             Logarithmic         
Va (mV)             128.0               
pw                  0.50                
Na                  3                   
corr                0                   
E range min (V)     -10.000             
E range max (V)     10.000              
I Range             Auto                
Bandwidth           5                   
nc cycles           0                   
goto Ns'            0                   
nr cycles           0                   
inc. cycle          1                   

freq/Hz	Re(Z)/Ohm	-Im(Z)/Ohm	|Z|/Ohm	Phase(Z)/deg	time/s	<Ewe>/V	<I>/mA	Cs/µF	Cp/µF	cycle number	I Range	|Ewe|/V	|I|/A	(Q-Qo)/mA.h	Analog OUT/V	Analog IN 1/V	Re(Y)/Ohm-1	Im(Y)/Ohm-1	|Y|/Ohm-1	Phase(Y)/deg	dq/mA.h	
1.0000186E+006	5.4075867E+001	1.8305256E+001	5.7090118E+001	-1.8701508E+001	1.645478371443460E+000	-1.3135715E-002	1.3410321E-003	8.6943330E-003	8.9385273E-004	1.000000000000000E+000	11	4.5422246E-004	7.9562360E-006	3.946070975149875E-007	0.0000000E+000	-1.0012865E+002	1.6591344E-002	5.6163468E-003	1.7516166E-002	1.8701508E+001	3.946070975149875E-007
8.9124669E+005	5.5513630E+001	1.4813874E+001	5.7456192E+001	-1.4941283E+001	2.241486373095540E+000	-1.2841552E-002	1.6635713E-003	1.2054620E-002	8.0134068E-004	1.000000000000000E+000	11	5.3182634E-004	9.2562059E-006	8.143450078407315E-007	0.0000000E+000	-1.0008855E+002	1.6816124E-002	4.4874018E-003	1.7404564E-002	1.4941283E+001	4.197379103257441E-007
7.9433269E+005	5.7302803E+001	1.3853001E+001	5.8953514E+001	-1.3590549E+001	2.837488641409436E+000	-1.2626788E-002	2.0871721E-003	1.4463515E-002	7.9862360E-004	1.000000000000000E+000	11	4.3442208E-004	7.3688921E-006	1.092277759968662E-006	0.0000000E+000	-1.0006450E+002	1.6487563E-002	3.9858823E-003	1.6962517E-002	1.3590549E+001	2.779327521279305E-007
7.0794981E+005	-2.0791920E+001	-8.9351683E+000	2.2630535E+001	1.5674475E+002	3.632600172568345E+000	-1.2473600E-002	2.6893225E-001	-2.5160249E-002	-3.9222091E-003	1.000000000000000E+000	9	2.2435450E-005	9.9137958E-007	2.670251815528092E-005	0.0000000E+000	-1.0010460E+002	-4.0598027E-002	-1.7446695E-002	4.4188086E-002	-1.5674475E+002	2.561024039531225E-005
6.3095681E+005	6.1291862E+001	1.2107862E+001	6.2476337E+001	-1.1174583E+001	4.808483588363742E+000	-1.2366143E-002	2.5740536E-003	2.0833058E-002	7.8245049E-004	1.000000000000000E+000	11	9.4004837E-004	1.5046470E-005	5.409286247517209E-005	0.0000000E+000	-1.0015271E+002	1.5702605E-002	3.1019612E-003	1.6006060E-002	1.1174583E+001	2.739034431989118E-005
5.6234225E+005	6.3433041E+001	1.1340280E+001	6.4438751E+001	-1.0136007E+001	5.405470656725811E+000	-1.2287675E-002	2.8491332E-003	2.4957189E-002	7.7294564E-004	1.000000000000000E+000	11	2.4922248E-003	3.8675869E-005	5.487907192609014E-005	0.0000000E+000	-1.0007252E+002	1.5276410E-002	2.7310492E-003	1.5518612E-002	1.0136007E+001	7.862094509180443E-007
5.0120619E+005	6.4965019E+001	1.0669847E+001	6.5835396E+001	-9.3269825E+000	6.002470871753758E+000	-1.2207251E-002	3.0711719E-003	2.9760862E-002	7.8170525E-004	1.000000000000000E+000	11	4.7337124E-003	7.1902243E-005	5.518072926952058E-005	0.0000000E+000	-1.0009658E+002	1.4988585E-002	2.4617235E-003	1.5189397E-002	9.3269825E+000	3.016573434304367E-007
4.4668572E+005	6.6102242E+001	9.9787188E+000	6.6851189E+001	-8.5844870E+000	6.598473860038212E+000	-1.2118343E-002	3.1631142E-003	3.5706170E-002	7.9556298E-004	1.000000000000000E+000	11	7.7341869E-003	1.1569259E-004	5.547176091952618E-005	0.0000000E+000	-1.0014469E+002	1.4791013E-002	2.2328342E-003	1.4958597E-002	8.5844870E+000	2.910316500056019E-007
3.9810347E+005	6.7547737E+001	9.3904581E+000	6.8197342E+001	-7.9145088E+000	7.194480181700783E+000	-1.2047743E-002	3.0784318E-003	4.2573310E-002	8.0719055E-004	1.000000000000000E+000	11	1.1565723E-002	1.6959198E-004	5.661863946879425E-005	0.0000000E+000	-1.0010460E+002	1.4523655E-002	2.0190724E-003	1.4663328E-002	7.9145088E+000	1.146878549268070E-006
3.5480997E+005	6.8321213E+001	8.7798300E+000	6.8883041E+001	-7.3228378E+000	7.790493809996406E+000	-1.1974906E-002	2.9341956E-003	5.1090270E-002	8.3001476E-004	1.000000000000000E+000	11	1.6171435E-002	2.3476657E-004	5.744805549103573E-005	0.0000000E+000	-1.0008855E+002	1.4398954E-002	1.8503823E-003	1.4517361E-002	7.3228378E+000	8.294160222414789E-007
3.1622997E+005	6.8906631E+001	8.1129093E+000	6.9382584E+001	-6.7149606E+000	8.386474691651529E+000	-1.1949067E-002	3.1633058E-003	6.2035531E-002	8.4818929E-004	1.000000000000000E+000	11	2.1577505E-002	3.1099311E-004	5.809955158755636E-005	0.0000000E+000	-1.0014469E+002	1.4313969E-002	1.6852941E-003	1.4412839E-002	6.7149606E+000	6.514960965206320E-007
2.8183453E+005	6.9305389E+001	7.5047712E+000	6.9710533E+001	-6.1802235E+000	8.981488426594296E+000	-1.1950018E-002	2.8227142E-003	7.5246871E-002	8.7210059E-004	1.000000000000000E+000	11	2.7844237E-002	3.9942653E-004	5.877069935790820E-005	0.0000000E+000	-1.0011262E+002	1.4261663E-002	1.5443319E-003	1.4345034E-002	6.1802235E+000	6.711477703518368E-007
2.5118764E+005	6.9654938E+001	6.9468784E+000	7.0000496E+001	-5.6954322E+000	9.577471734868595E+000	-1.1959059E-002	3.0946319E-003	9.1207840E-002	8.9827506E-004	1.000000000000000E+000	11	3.4964323E-002	4.9948681E-004	5.875671190114938E-005	0.0000000E+000	-1.0012064E+002	1.4215091E-002	1.4177102E-003	1.4285613E-002	5.6954322E+000	-1.398745675881830E-008
2.2387173E+005	6.9926163E+001	6.4512615E+000	7.0223122E+001	-5.2710843E+000	1.017347045653150E+001	-1.1942057E-002	3.3099742E-003	1.1019863E-001	9.3004777E-004	1.000000000000000E+000	11	4.3024089E-002	6.1267696E-004	5.869118089899873E-005	0.0000000E+000	-1.0004044E+002	1.4180104E-002	1.3082309E-003	1.4240324E-002	5.2710843E+000	-6.553100215064318E-008
1.9954350E+005	7.0088028E+001	5.9949732E+000	7.0343948E+001	-4.8888898E+000	1.077048539152020E+001	-1.1960569E-002	2.7438130E-003	1.3304400E-001	9.6630969E-004	1.000000000000000E+000	11	5.1898573E-002	7.3778303E-004	6.090497676159268E-005	0.0000000E+000	-1.0012865E+002	1.4164145E-002	1.2115288E-003	1.4215864E-002	4.8888898E+000	2.213795862593947E-006
1.7783180E+005	7.0281425E+001	5.6186376E+000	7.0505661E+001	-4.5707808E+000	1.136648568653618E+001	-1.1970710E-002	3.1836070E-003	1.5928677E-001	1.0115649E-003	1.000000000000000E+000	11	6.1607178E-002	8.7379053E-004	6.010120884183562E-005	0.0000000E+000	-1.0009658E+002	1.4138151E-002	1.1302722E-003	1.4183259E-002	4.5707808E+000	-8.037679197570654E-007
1.5848613E+005	7.0418846E+001	5.2974553E+000	7.0617821E+001	-4.3021326E+000	1.196247051484534E+001	-1.2024681E-002	2.6760700E-003	1.8956649E-001	1.0667620E-003	1.000000000000000E+000	11	7.1980476E-002	1.0192962E-003	6.045653557585643E-005	0.0000000E+000	-1.0004846E+002	1.4120832E-002	1.0622792E-003	1.4160732E-002	4.3021326E+000	3.553267340208129E-007
1.4125594E+005	7.0516571E+001	5.0397549E+000	7.0696434E+001	-4.0879264E+000	1.255849016978755E+001	-1.1999662E-002	3.1774689E-003	2.2356510E-001	1.1361294E-003	1.000000000000000E+000	11	8.3039880E-002	1.1745979E-003	6.215471747398906E-005	0.0000000E+000	-1.0010460E+002	1.4108998E-002	1.0083572E-003	1.4144985E-002	4.0879264E+000	1.698181898132634E-006
1.2590930E+005	7.0642159E+001	4.8361788E+000	7.0807510E+001	-3.9163716E+000	1.315447318475344E+001	-1.1974773E-002	3.4091948E-003	2.6137257E-001	1.2192873E-003	1.000000000000000E+000	11	9.4961584E-002	1.3411230E-003	6.517137379213414E-005	0.0000000E+000	-1.0010460E+002	1.4089816E-002	9.6459204E-004	1.4122795E-002	3.9163716E+000	3.016656318145081E-006
1.1220494E+005	7.0720062E+001	4.6857715E+000	7.0875130E+001	-3.7907639E+000	1.374949329302763E+001	-1.2033088E-002	1.5281256E-003	3.0271021E-001	1.3231270E-003	1.000000000000000E+000	11	1.0778756E-001	1.5208094E-003	6.819979105076831E-005	0.0000000E+000	-1.0009658E+002	1.4078452E-002	9.3281036E-004	1.4109322E-002	3.7907639E+000	3.028417258634164E-006
1.0000371E+005	7.0748917E+001	4.5910382E+000	7.0897720E+001	-3.7128315E+000	1.420948832822614E+001	-1.1973635E-002	2.7725003E-003	3.4665149E-001	1.4536183E-003	1.000000000000000E+000	11	1.2157848E-001	1.7148433E-003	7.008920342918848E-005	0.0000000E+000	-1.0008855E+002	1.4075221E-002	9.1336912E-004	1.4104825E-002	3.7128315E+000	1.889412378420171E-006
8.9129305E+004	7.0804787E+001	4.5464854E+000	7.0950607E+001	-3.6740069E+000	1.466848861667677E+001	-1.1961331E-002	2.9143202E-003	3.9275691E-001	1.6127357E-003	1.000000000000000E+000	11	1.3654995E-001	1.9245776E-003	6.961615859573875E-005	0.0000000E+000	-1.0011262E+002	1.4065345E-002	9.0315763E-004	1.4094312E-002	3.6740069E+000	-4.730448334497312E-007
7.9433273E+004	7.0845421E+001	4.5507064E+000	7.0991425E+001	-3.6753056E+000	1.526347931163036E+001	-1.1943677E-002	2.7287654E-003	4.4029003E-001	1.8091922E-003	1.000000000000000E+000	11	1.3026696E-001	1.8349676E-003	6.547650118451889E-005	0.0000000E+000	-1.0006450E+002	1.4057238E-002	9.0295699E-004	1.4086208E-002	3.6753056E+000	-4.139657411219859E-006
7.0794977E+004	7.0877670E+001	4.6071744E+000	7.1027252E+001	-3.7190952E+000	1.585849304651492E+001	-1.1892688E-002	3.3857548E-003	4.8795867E-001	2.0530631E-003	1.000000000000000E+000	11	1.2975532E-001	1.8268385E-003	6.477374933330713E-005	0.0000000E+000	-1.0008855E+002	1.4049454E-002	9.1323943E-004	1.4079103E-002	3.7190952E+000	-7.027518512117627E-007
6.3093828E+004	7.0907593E+001	4.7239738E+000	7.1064781E+001	-3.8115013E+000	1.645349568812526E+001	-1.1902029E-002	3.2614302E-003	5.3398097E-001	2.3595646E-003	1.000000000000000E+000	11	1.2962295E-001	1.8240112E-003	6.797048240313113E-005	0.0000000E+000	-1.0012865E+002	1.4040543E-002	9.3540276E-004	1.4071668E-002	3.8115013E+000	3.196733069824002E-006
5.6237012E+004	7.0939651E+001	4.8917208E+000	7.1108109E+001	-3.9446485E+000	1.704847240974777E+001	-1.1914109E-002	3.0902023E-003	5.7854378E-001	2.7379235E-003	1.000000000000000E+000	11	1.2958726E-001	1.8223979E-003	7.041036751920991E-005	0.0000000E+000	-1.0013667E+002	1.4029778E-002	9.6743862E-004	1.4063094E-002	3.9446485E+000	2.439885116078787E-006
5.0122477E+004	7.0954956E+001	5.1126809E+000	7.1138916E+001	-4.1213422E+000	1.764348369135405E+001	-1.1897406E-002	3.2189933E-003	6.2106764E-001	3.2079073E-003	1.000000000000000E+000	11	1.2946925E-001	1.8199497E-003	7.410228672703508E-005	0.0000000E+000	-1.0005648E+002	1.4020653E-002	1.0102625E-003	1.4057004E-002	4.1213422E+000	3.691919207825161E-006
4.4666715E+004	7.0988777E+001	5.3982682E+000	7.1193733E+001	-4.3486290E+000	1.823847401290550E+001	-1.1885530E-002	3.4062264E-003	6.6005737E-001	3.7949586E-003	1.000000000000000E+000	11	1.2939982E-001	1.8175732E-003	7.305464581655300E-005	0.0000000E+000	-1.0012865E+002	1.4005743E-002	1.0650522E-003	1.4046180E-002	4.3486290E+000	-1.047640910482081E-006
3.9814063E+004	7.1009422E+001	5.7482214E+000	7.1241699E+001	-4.6280088E+000	1.883348537448910E+001	-1.1902122E-002	3.1856794E-003	6.9542480E-001	4.5273970E-003	1.000000000000000E+000	11	1.2934849E-001	1.8156288E-003	7.328760760771305E-005	0.0000000E+000	-1.0004846E+002	1.3990957E-002	1.1325697E-003	1.4036723E-002	4.6280088E+000	2.329617911600546E-007
3.5480996E+004	7.1040520E+001	6.1734099E+000	7.1308250E+001	-4.9665174E+000	1.929248771633138E+001	-1.1861611E-002	3.6615764E-003	7.2660637E-001	5.4459027E-003	1.000000000000000E+000	11	1.4045478E-001	1.9696848E-003	7.513991674894997E-005	0.0000000E+000	-1.0010460E+002	1.3970970E-002	1.2140750E-003	1.4023622E-002	4.9665174E+000	1.852309141236924E-006
3.1621143E+004	7.1070839E+001	6.6660933E+000	7.1382774E+001	-5.3583841E+000	1.988849315795233E+001	-1.1893788E-002	3.3477871E-003	7.5504214E-001	6.5845652E-003	1.000000000000000E+000	11	1.3028407E-001	1.8251472E-003	7.714908174276287E-005	0.0000000E+000	-1.0008855E+002	1.3947763E-002	1.3082313E-003	1.4008982E-002	5.3583841E+000	2.009164993812897E-006
2.8188096E+004	7.1117783E+001	7.2380166E+000	7.1485161E+001	-5.8112717E+000	2.034848699314171E+001	-1.1900332E-002	3.0859199E-003	7.8007221E-001	7.9972772E-003	1.000000000000000E+000	11	1.3978280E-001	1.9554100E-003	7.592272150747078E-005	0.0000000E+000	-1.0008855E+002	1.3917026E-002	1.4164061E-003	1.3988918E-002	5.8112717E+000	-1.226360235292095E-006
2.5116910E+004	7.1166794E+001	7.8981738E+000	7.1603729E+001	-6.3328371E+000	2.094549304814427E+001	-1.1880962E-002	3.4531276E-003	8.0228233E-001	9.7613372E-003	1.000000000000000E+000	11	1.3013247E-001	1.8173979E-003	7.505040596237005E-005	0.0000000E+000	-1.0009658E+002	1.3880532E-002	1.5404776E-003	1.3965753E-002	6.3328371E+000	-8.723155451007241E-007
2.2389027E+004	7.1221313E+001	8.6437902E+000	7.1743927E+001	-6.9198713E+000	2.140547595001408E+001	-1.1878353E-002	3.3470427E-003	8.2239544E-001	1.1937650E-002	1.000000000000000E+000	11	1.3774955E-001	1.9200169E-003	7.666637326481092E-005	0.0000000E+000	-1.0006450E+002	1.3836930E-002	1.6793219E-003	1.3938462E-002	6.9198713E+000	1.615967302440868E-006
1.9948783E+004	7.1280861E+001	9.4992447E+000	7.1911034E+001	-7.5907974E+000	2.200149197832798E+001	-1.1882715E-002	3.3762620E-003	8.3987504E-001	1.4655537E-002	1.000000000000000E+000	11	1.2963265E-001	1.8026809E-003	8.124235756134214E-005	0.0000000E+000	-1.0009658E+002	1.3784210E-002	1.8369530E-003	1.3906072E-002	7.5907974E+000	4.575984296531220E-006
1.7786895E+004	7.1363060E+001	1.0463846E+001	7.2126129E+001	-8.3417406E+000	2.246149114685250E+001	-1.1873766E-002	3.3457391E-003	8.5512316E-001	1.7998077E-002	1.000000000000000E+000	11	1.3540345E-001	1.8773149E-003	8.307782587783165E-005	0.0000000E+000	-1.0011262E+002	1.3717919E-002	2.0114353E-003	1.3864601E-002	8.3417406E+000	1.835468316489509E-006
1.5847686E+004	7.1476234E+001	1.1552629E+001	7.2403831E+001	-9.1812572E+000	2.292148407534114E+001	-1.1862002E-002	3.4025067E-003	8.6930752E-001	2.2131560E-002	1.000000000000000E+000	11	1.4063957E-001	1.9424328E-003	8.534199743775146E-005	0.0000000E+000	-1.0005648E+002	1.3634479E-002	2.2037267E-003	1.3811423E-002	9.1812572E+000	2.264171559919812E-006
1.4121879E+004	7.1577988E+001	1.2774852E+001	7.2709045E+001	-1.0119294E+001	2.351649130359874E+001	-1.1866682E-002	3.3950596E-003	8.8220960E-001	2.7233699E-002	1.000000000000000E+000	11	1.2974298E-001	1.7844132E-003	8.631275492016640E-005	0.0000000E+000	-1.0010460E+002	1.3539499E-002	2.4164564E-003	1.3753447E-002	1.0119294E+001	9.707574824149401E-007
1.2590932E+004	7.1717979E+001	1.4142675E+001	7.3099136E+001	-1.1155507E+001	2.397648791215033E+001	-1.1865190E-002	3.3848237E-003	8.9378011E-001	3.3455640E-002	1.000000000000000E+000	11	1.3321877E-001	1.8224396E-003	8.619786438651499E-005	0.0000000E+000	-1.0004044E+002	1.3421576E-002	2.6467142E-003	1.3680052E-002	1.1155507E+001	-1.148905336514113E-007
1.1217711E+004	7.1871033E+001	1.5678897E+001	7.3561356E+001	-1.2306451E+001	2.443548113389988E+001	-1.1869777E-002	3.3518816E-003	9.0489966E-001	4.1108530E-002	1.000000000000000E+000	11	1.3614774E-001	1.8508051E-003	8.574443368091468E-005	0.0000000E+000	-1.0001638E+002	1.3281723E-002	2.8974507E-003	1.3594095E-002	1.2306451E+001	-4.534307056003122E-007
1.0002229E+004	7.2062843E+001	1.7386702E+001	7.4130630E+001	-1.3564591E+001	2.489547934246366E+001	-1.1863736E-002	3.2422587E-003	9.1517913E-001	5.0343700E-002	1.000000000000000E+000	11	1.3857287E-001	1.8693066E-003	8.468512135796158E-005	0.0000000E+000	-1.0012865E+002	1.3113420E-002	3.1638932E-003	1.3489701E-002	1.3564591E+001	-1.059312322953095E-006
8.9149297E+003	7.2283752E+001	1.9298037E+001	7.4815475E+001	-1.4947969E+001	2.537789928537677E+001	-1.1836667E-002	3.8015372E-003	9.2510080E-001	6.1550621E-002	1.000000000000000E+000	11	1.4053665E-001	1.8784435E-003	8.493906864649034E-005	0.0000000E+000	-1.0011262E+002	1.2913912E-002	3.4477061E-003	1.3366219E-002	1.4947969E+001	2.539472885287593E-007
7.9439976E+003	7.2526527E+001	2.1434084E+001	7.5627487E+001	-1.6464224E+001	2.605797889101086E+001	-1.1811034E-002	4.1369186E-003	9.3470830E-001	7.5080402E-002	1.000000000000000E+000	11	1.2948394E-001	1.7121279E-003	8.894454573841196E-005	0.0000000E+000	-1.0007252E+002	1.2680533E-002	3.7475342E-003	1.3222706E-002	1.6464224E+001	4.005477091921619E-006
7.0822334E+003	7.2802940E+001	2.3784445E+001	7.6589607E+001	-1.8092018E+001	2.663485243843752E+001	-1.1795560E-002	4.1462225E-003	9.4483703E-001	9.1117799E-002	1.000000000000000E+000	11	1.3055664E-001	1.7046261E-003	8.983160508642323E-005	0.0000000E+000	-1.0006450E+002	1.2411070E-002	4.0546493E-003	1.3056601E-002	1.8092018E+001	8.870593480112671E-007
6.3077344E+003	7.3136078E+001	2.6438931E+001	7.7768265E+001	-1.9875090E+001	2.726855292179971E+001	-1.1784542E-002	3.9625261E-003	9.5433939E-001	1.1030261E-001	1.000000000000000E+000	11	1.3135469E-001	1.6890527E-003	9.049461290390657E-005	0.0000000E+000	-1.0003242E+002	1.2092800E-002	4.3715867E-003	1.2858716E-002	1.9875090E+001	6.630078174833451E-007
5.6210552E+003	7.3521797E+001	2.9368540E+001	7.9170486E+001	-2.1774410E+001	2.796925919511705E+001	-1.1781149E-002	3.9519151E-003	9.6409523E-001	1.3266550E-001	1.000000000000000E+000	11	1.3191153E-001	1.6661705E-003	9.028073231198424E-005	0.0000000E+000	-1.0004846E+002	1.1729769E-002	4.6854974E-003	1.2630969E-002	2.1774410E+001	-2.138805919223310E-007
5.0116035E+003	7.3954247E+001	3.2603863E+001	8.0822289E+001	-2.3791019E+001	2.872967891127337E+001	-1.1765806E-002	4.1480814E-003	9.7403461E-001	1.5850763E-001	1.000000000000000E+000	11	1.3226357E-001	1.6364739E-003	9.221227729699200E-005	0.0000000E+000	-1.0004044E+002	1.1321418E-002	4.9912208E-003	1.2372824E-002	2.3791019E+001	1.931544985007757E-006
4.4664292E+003	7.4442688E+001	3.6203674E+001	8.2779343E+001	-2.5935020E+001	2.948968121404323E+001	-1.1767036E-002	3.8605330E-003	9.8425364E-001	1.8826447E-001	1.000000000000000E+000	11	1.3245663E-001	1.6001170E-003	9.311867310548809E-005	0.0000000E+000	-1.0008855E+002	1.0863708E-002	5.2833417E-003	1.2080309E-002	2.5935020E+001	9.063958084960940E-007
3.9812742E+003	7.5008438E+001	4.0192764E+001	8.5098320E+001	-2.8184332E+001	3.024966594346915E+001	-1.1753241E-002	4.1890251E-003	9.9460393E-001	2.2187273E-001	1.000000000000000E+000	11	1.3250925E-001	1.5571312E-003	9.520684532342258E-005	0.0000000E+000	-1.0016073E+002	1.0357815E-002	5.5501652E-003	1.1751113E-002	2.8184332E+001	2.088172217934491E-006
3.5465955E+003	7.5646400E+001	4.4630177E+001	8.7830696E+001	-3.0539930E+001	3.100994171289494E+001	-1.1767148E-002	4.0890817E-003	1.0054950E+000	2.5962377E-001	1.000000000000000E+000	11	1.3245603E-001	1.5080837E-003	9.710850225640913E-005	0.0000000E+000	-1.0006450E+002	9.8060844E-003	5.7854345E-003	1.1385541E-002	3.0539930E+001	1.901656932986546E-006
3.1610112E+003	7.6367096E+001	4.9523945E+001	9.1019531E+001	-3.2963348E+001	3.176970297566731E+001	-1.1770840E-002	4.0457142E-003	1.0166674E+000	3.0098173E-001	1.000000000000000E+000	11	1.3231061E-001	1.4536508E-003	9.905358710975917E-005	0.0000000E+000	-1.0007252E+002	9.2180083E-003	5.9778648E-003	1.0986653E-002	3.2963348E+001	1.945084853350037E-006
2.8172952E+003	7.7152092E+001	5.4924793E+001	9.4705742E+001	-3.5447174E+001	3.252894175838446E+001	-1.1776078E-002	4.0712086E-003	1.0285356E+000	3.4594223E-001	1.000000000000000E+000	11	1.3210776E-001	1.3949288E-003	1.010636153413830E-004	0.0000000E+000	-1.0013667E+002	8.6019132E-003	6.1237267E-003	1.0559021E-002	3.5447174E+001	2.010028231623842E-006
2.5108032E+003	7.8050270E+001	6.0917202E+001	9.9008842E+001	-3.7971565E+001	3.328866240782008E+001	-1.1773543E-002	4.0509203E-003	1.0405610E+000	3.9391220E-001	1.000000000000000E+000	11	1.3185741E-001	1.3317741E-003	1.024128878938015E-004	0.0000000E+000	-1.0007252E+002	7.9620788E-003	6.2142964E-003	1.0100108E-002	3.7971565E+001	1.349272552418463E-006
2.2378516E+003	7.9031036E+001	6.7543625E+001	1.0396175E+002	-4.0518753E+001	3.404893215058837E+001	-1.1769572E-002	4.1108434E-003	1.0529420E+000	4.4445318E-001	1.000000000000000E+000	11	1.3157488E-001	1.2656086E-003	1.022353325838946E-004	0.0000000E+000	-1.0008054E+002	7.3122405E-003	6.2493840E-003	9.6189221E-003	4.0518753E+001	-1.775553099068853E-007
1.9956389E+003	8.0118652E+001	7.4833992E+001	1.0963177E+002	-4.3046684E+001	3.480867866668268E+001	-1.1798468E-002	3.7529378E-003	1.0657105E+000	4.9655145E-001	1.000000000000000E+000	11	1.3128972E-001	1.1975518E-003	1.037901287144875E-004	0.0000000E+000	-1.0011262E+002	6.6659311E-003	6.2262435E-003	9.1214441E-003	4.3046684E+001	1.554796130592880E-006
1.7782927E+003	8.1320892E+001	8.2964134E+001	1.1617287E+002	-4.5573074E+001	3.556892971610068E+001	-1.1772574E-002	4.0456988E-003	1.0787641E+000	5.5017120E-001	1.000000000000000E+000	11	1.3099793E-001	1.1276121E-003	1.037376852919276E-004	0.0000000E+000	-1.0003242E+002	6.0254945E-003	6.1472510E-003	8.6078616E-003	4.5573074E+001	-5.244342255982513E-008
1.5855076E+003	8.2653267E+001	9.1930809E+001	1.2362376E+002	-4.8041885E+001	3.632868735220836E+001	-1.1761929E-002	4.3096095E-003	1.0919198E+000	6.0382205E-001	1.000000000000000E+000	11	1.3072497E-001	1.0574420E-003	1.040861757044380E-004	0.0000000E+000	-1.0006450E+002	5.4082414E-003	6.0152984E-003	8.0890600E-003	4.8041885E+001	3.484904125103285E-007
1.4118373E+003	8.4084816E+001	1.0195064E+002	1.3215215E+002	-5.0485550E+001	3.709019685498788E+001	-1.1782920E-002	4.0691462E-003	1.1057210E+000	6.5807748E-001	1.000000000000000E+000	11	1.3045384E-001	9.8714884E-004	1.042848137095474E-004	0.0000000E+000	-1.0007252E+002	4.8146988E-003	5.8376966E-003	7.5670355E-003	5.0485550E+001	1.986380051093831E-007
1.2587914E+003	8.5614418E+001	1.1292959E+002	1.4171422E+002	-5.2833427E+001	3.784992907778360E+001	-1.1776283E-002	4.0496043E-003	1.1195890E+000	7.1096343E-001	1.000000000000000E+000	11	1.3020739E-001	9.1880263E-004	1.045995582514184E-004	0.0000000E+000	-1.0004846E+002	4.2630467E-003	5.6231655E-003	7.0564551E-003	5.2833427E+001	3.147445418710246E-007
1.1217948E+003	8.7378365E+001	1.2529565E+002	1.5275464E+002	-5.5108952E+001	3.860841266045463E+001	-1.1786835E-002	3.7940661E-003	1.1323240E+000	7.6182264E-001	1.000000000000000E+000	11	1.2999187E-001	8.5098477E-004	1.056502957555430E-004	0.0000000E+000	-1.0010460E+002	3.7446832E-003	5.3696651E-003	6.5464461E-003	5.5108952E+001	1.050737504124609E-006
1.0003201E+003	8.9237869E+001	1.3888643E+002	1.6508434E+002	-5.7278282E+001	3.936769074988842E+001	-1.1777104E-002	3.9487267E-003	1.1455693E+000	8.1082892E-001	1.000000000000000E+000	11	1.2978855E-001	7.8619545E-004	1.057838761100785E-004	0.0000000E+000	-1.0001638E+002	3.2744431E-003	5.0962195E-003	6.0575102E-003	5.7278282E+001	1.335803545354997E-007
8.9142657E+002	9.1237465E+001	1.5404857E+002	1.7903976E+002	-5.9363258E+001	4.012642542590038E+001	-1.1781056E-002	4.0160986E-003	1.1589825E+000	8.5801172E-001	1.000000000000000E+000	11	1.2960644E-001	7.2389754E-004	1.060476728614109E-004	0.0000000E+000	-1.0008054E+002	2.8462575E-003	4.8057227E-003	5.5853515E-003	5.9363258E+001	2.637967513324389E-007
7.9423773E+002	9.3404930E+001	1.7094681E+002	1.9480064E+002	-6.1347912E+001	4.088595098198857E+001	-1.1784468E-002	4.1203210E-003	1.1722186E+000	9.0271330E-001	1.000000000000000E+000	11	1.2945546E-001	6.6455355E-004	1.073470646936847E-004	0.0000000E+000	-1.0013667E+002	2.4614388E-003	4.5048487E-003	5.1334533E-003	6.1347912E+001	1.299391832273810E-006
7.0750946E+002	9.5679329E+001	1.8962038E+002	2.1239214E+002	-6.3225239E+001	4.164844389815698E+001	-1.1788215E-002	4.1234810E-003	1.1863228E+000	9.4557506E-001	1.000000000000000E+000	11	1.2932482E-001	6.0889649E-004	1.076774060164106E-004	0.0000000E+000	-1.0007252E+002	2.1210029E-003	4.2034718E-003	4.7082724E-003	6.3225239E+001	3.303413227258799E-007
6.3100964E+002	9.8155350E+001	2.1026561E+002	2.3204762E+002	-6.4976082E+001	4.240640700081713E+001	-1.1788066E-002	4.0393565E-003	1.1995431E+000	9.8491359E-001	1.000000000000000E+000	11	1.2921385E-001	5.5684196E-004	1.081026060427701E-004	0.0000000E+000	-1.0012064E+002	1.8228868E-003	3.9049366E-003	4.3094601E-003	6.4976082E+001	4.252000263594592E-007
5.6233929E+002	1.0078268E+002	2.3322554E+002	2.5406947E+002	-6.6629601E+001	4.316191007674206E+001	-1.1787338E-002	3.9163306E-003	1.2135162E+000	1.0225695E+000	1.000000000000000E+000	11	1.2911382E-001	5.0818315E-004	1.090913748385893E-004	0.0000000E+000	-1.0008855E+002	1.5612805E-003	3.6130261E-003	3.9359313E-003	6.6629601E+001	9.887687958192403E-007
5.0144415E+002	1.0365419E+002	2.5895258E+002	2.7892764E+002	-6.8184639E+001	4.391918363267905E+001	-1.1787152E-002	3.9349436E-003	1.2256806E+000	1.0564153E+000	1.000000000000000E+000	11	1.2903661E-001	4.6261679E-004	1.101149467125781E-004	0.0000000E+000	-1.0006450E+002	1.3323051E-003	3.3284123E-003	3.5851591E-003	6.8184639E+001	1.023571873988763E-006
4.4685895E+002	1.0683215E+002	2.8789243E+002	3.0707516E+002	-6.9640938E+001	4.492591520052520E+001	-1.1780515E-002	3.8514027E-004	1.2371417E+000	1.0874031E+000	1.000000000000000E+000	12	1.3175738E-001	4.2907207E-004	1.105174474663735E-004	0.0000000E+000	-1.0012064E+002	1.1329547E-003	3.0530987E-003	3.2565317E-003	6.9640938E+001	4.025007537954178E-007
3.9808920E+002	1.1022693E+002	3.2002682E+002	3.3847769E+002	-7.0994743E+001	4.568871369012049E+001	-1.1781466E-002	4.0501557E-004	1.2492614E+000	1.1167759E+000	1.000000000000000E+000	12	1.3117698E-001	3.8754984E-004	1.106261106829722E-004	0.0000000E+000	-1.0009658E+002	9.6211635E-004	2.7933561E-003	2.9544046E-003	7.0994743E+001	1.086632165986709E-007
3.5465955E+002	1.1386471E+002	3.5577167E+002	3.7354874E+002	-7.2252731E+001	4.644892951287329E+001	-1.1794125E-002	3.9827215E-004	1.2613544E+000	1.1441562E+000	1.000000000000000E+000	12	1.3070169E-001	3.4989192E-004	1.108831670986126E-004	0.0000000E+000	-1.0007252E+002	8.1600837E-004	2.5496280E-003	2.6770269E-003	7.2252731E+001	2.570564156404641E-007
3.1631586E+002	1.1779668E+002	3.9528824E+002	4.1246680E+002	-7.3405838E+001	4.720593850882142E+001	-1.1793565E-002	3.9108051E-004	1.2728736E+000	1.1690553E+000	1.000000000000000E+000	12	1.3032357E-001	3.1596137E-004	1.107618574076073E-004	0.0000000E+000	-1.0006450E+002	6.9239689E-004	2.3234638E-003	2.4244376E-003	7.3405838E+001	-1.213096910052835E-007
2.8189429E+002	1.2202831E+002	4.3959070E+002	4.5621365E+002	-7.4485596E+001	4.796142686469830E+001	-1.1793957E-002	3.9817704E-004	1.2843558E+000	1.1924654E+000	1.000000000000000E+000	12	1.3000369E-001	2.8496230E-004	1.109107475045328E-004	0.0000000E+000	-1.0016073E+002	5.8630563E-004	2.1120878E-003	2.1919555E-003	7.4485596E+001	1.488900969254454E-007
2.5104436E+002	1.2671554E+002	4.8932297E+002	5.0546393E+002	-7.5481560E+001	4.871793778066058E+001	-1.1795430E-002	4.0313002E-004	1.2956092E+000	1.2141851E+000	1.000000000000000E+000	12	1.2974676E-001	2.5668848E-004	1.107258635972895E-004	0.0000000E+000	-1.0007252E+002	4.9596338E-004	1.9152050E-003	1.9783806E-003	7.5481560E+001	-1.848839072433076E-007
2.2392513E+002	1.3174312E+002	5.4416522E+002	5.5988574E+002	-7.6390480E+001	4.948069672356360E+001	-1.1791496E-002	3.9515653E-004	1.3061304E+000	1.2338128E+000	1.000000000000000E+000	12	1.2954074E-001	2.3136997E-004	1.105890485186044E-004	0.0000000E+000	-1.0009658E+002	4.2027075E-004	1.7359291E-003	1.7860787E-003	7.6390480E+001	-1.368150786850743E-007
1.9955299E+002	1.3722438E+002	6.0565021E+002	6.2100134E+002	-7.7233826E+001	5.024220785303623E+001	-1.1798655E-002	4.1765929E-004	1.3168612E+000	1.2525604E+000	1.000000000000000E+000	12	1.2937212E-001	2.0832825E-004	1.105395442290853E-004	0.0000000E+000	-1.0009658E+002	3.5583298E-004	1.5704958E-003	1.6103025E-003	7.7233826E+001	-4.950428951915910E-008
1.7778128E+002	1.4326270E+002	6.7451093E+002	6.8955725E+002	-7.8008858E+001	5.101023250285652E+001	-1.1802570E-002	3.9467172E-004	1.3272268E+000	1.2699378E+000	1.000000000000000E+000	12	1.2923431E-001	1.8741637E-004	1.106711496688012E-004	0.0000000E+000	-1.0008054E+002	3.0129545E-004	1.4185620E-003	1.4502059E-003	7.8008858E+001	1.316054397159153E-007
1.5842838E+002	1.4985803E+002	7.5100940E+002	7.6581494E+002	-7.8715294E+001	5.177673285927449E+001	-1.1791925E-002	3.8369975E-004	1.3376479E+000	1.2864262E+000	1.000000000000000E+000	12	1.2911658E-001	1.6860024E-004	1.107242707179895E-004	0.0000000E+000	-1.0008855E+002	2.5552438E-004	1.2805534E-003	1.3057985E-003	7.8715294E+001	5.312104918831319E-008
1.4131134E+002	1.5707549E+002	8.3618536E+002	8.5081061E+002	-7.9361099E+001	5.252987100169412E+001	-1.1797871E-002	3.9403758E-004	1.3469162E+000	1.3010077E+000	1.000000000000000E+000	12	1.2903294E-001	1.5165882E-004	1.109105709514155E-004	0.0000000E+000	-1.0012064E+002	2.1699150E-004	1.1551457E-003	1.1753497E-003	7.9361099E+001	1.863002334260666E-007
1.2584569E+002	1.6507884E+002	9.3220886E+002	9.4671240E+002	-7.9957962E+001	5.328538967753411E+001	-1.1791925E-002	4.1668891E-004	1.3566524E+000	1.3154031E+000	1.000000000000000E+000	12	1.2896158E-001	1.3622043E-004	1.109025959492857E-004	0.0000000E+000	-1.0007252E+002	1.8418548E-004	1.0401048E-003	1.0562870E-003	7.9957962E+001	-7.975002129883527E-009
1.1218996E+002	1.7372363E+002	1.0381263E+003	1.0525618E+003	-8.0499954E+001	5.403085989967803E+001	-1.1796008E-002	4.4103473E-004	1.3665198E+000	1.3292944E+000	1.000000000000000E+000	12	1.2890019E-001	1.2246330E-004	1.108601440928133E-004	0.0000000E+000	-1.0004846E+002	1.5680637E-004	9.3703333E-004	9.5006300E-004	8.0499954E+001	-4.245185647232068E-008
1.0003201E+002	1.8341682E+002	1.1563405E+003	1.1707968E+003	-8.0986923E+001	5.479068929577625E+001	-1.1797536E-002	4.1167700E-004	1.3759271E+000	1.3421586E+000	1.000000000000000E+000	12	1.2885487E-001	1.1005742E-004	1.109068103036075E-004	0.0000000E+000	-1.0008054E+002	1.3380621E-004	8.4357307E-004	8.5411919E-004	8.0986923E+001	4.666621079417888E-008
8.9115974E+001	1.9400546E+002	1.2894410E+003	1.3039541E+003	-8.1443626E+001	5.555772813220392E+001	-1.1788681E-002	4.0986986E-004	1.3850424E+000	1.3543829E+000	1.000000000000000E+000	12	1.2881729E-001	9.8789744E-005	1.110389244508668E-004	0.0000000E+000	-1.0009658E+002	1.1410098E-004	7.5836253E-004	7.6689816E-004	8.1443626E+001	1.321141472593172E-007
7.9415527E+001	2.0597733E+002	1.4381198E+003	1.4527957E+003	-8.1849144E+001	5.632220238182344E+001	-1.1797201E-002	3.9144667E-004	1.3935406E+000	1.3655282E+000	1.000000000000000E+000	12	1.2879181E-001	8.8651017E-005	1.110663178567556E-004	0.0000000E+000	-1.0004044E+002	9.7591103E-005	6.8137469E-004	6.8832806E-004	8.1849144E+001	2.739340588878961E-008
7.0838745E+001	2.1933371E+002	1.6029077E+003	1.6178444E+003	-8.2208328E+001	5.707336599080008E+001	-1.1797238E-002	3.7427133E-004	1.4016538E+000	1.3758919E+000	1.000000000000000E+000	12	1.2876289E-001	7.9589168E-005	1.111840900134830E-004	0.0000000E+000	-1.0009658E+002	8.3797655E-005	6.1239983E-004	6.1810645E-004	8.2208328E+001	1.177721567273779E-007
6.3082302E+001	2.3424840E+002	1.7897590E+003	1.8050234E+003	-8.2543365E+001	5.785383733459457E+001	-1.1802626E-002	4.0856531E-004	1.4096719E+000	1.3859305E+000	1.000000000000000E+000	12	1.2874064E-001	7.1323528E-005	1.112613365888667E-004	0.0000000E+000	-1.0016073E+002	7.1896990E-005	5.4932432E-004	5.5400940E-004	8.2543365E+001	7.724657538366606E-008
5.6241817E+001	2.5106174E+002	1.9950216E+003	2.0107568E+003	-8.2827370E+001	5.859835371657391E+001	-1.1795634E-002	4.1316601E-004	1.4184473E+000	1.3963339E+000	1.000000000000000E+000	12	1.2873158E-001	6.4021457E-005	1.113972112474100E-004	0.0000000E+000	-1.0008054E+002	6.2095671E-005	4.9343333E-004	4.9732515E-004	8.2827370E+001	1.358746585432903E-007
5.0144413E+001	2.6890399E+002	2.2241487E+003	2.2403452E+003	-8.3106285E+001	5.935516367256059E+001	-1.1801898E-002	4.0001440E-004	1.4270321E+000	1.4064733E+000	1.000000000000000E+000	12	1.2871784E-001	5.7454468E-005	1.115280628241085E-004	0.0000000E+000	-1.0005648E+002	5.3575644E-005	4.4313283E-004	4.4635977E-004	8.3106285E+001	1.308515766985620E-007
4.4671219E+001	2.8989026E+002	2.4797344E+003	2.4966216E+003	-8.3332176E+001	6.011924482884933E+001	-1.1798170E-002	3.9835650E-004	1.4367697E+000	1.4173987E+000	1.000000000000000E+000	12	1.2870573E-001	5.1551953E-005	1.116044450400562E-004	0.0000000E+000	-1.0005648E+002	4.6508041E-005	3.9783205E-004	4.0054129E-004	8.3332176E+001	7.638221594768438E-008
3.9808922E+001	3.1469101E+002	2.7712053E+003	2.7890159E+003	-8.3521393E+001	6.113473058375530E+001	-1.1802942E-002	4.2948832E-005	1.4426833E+000	1.4243163E+000	1.000000000000000E+000	13	1.2898561E-001	4.6247715E-005	1.117001856782671E-004	0.0000000E+000	-1.0007252E+002	4.0455929E-005	3.5625973E-004	3.5854941E-004	8.3521393E+001	9.574063821088158E-008
3.5465305E+001	3.4141754E+002	3.0927039E+003	3.1114922E+003	-8.3700371E+001	6.188413987265085E+001	-1.1792502E-002	4.5086876E-005	1.4510357E+000	1.4335648E+000	1.000000000000000E+000	13	1.2891865E-001	4.1433061E-005	1.116881725296593E-004	0.0000000E+000	-1.0004846E+002	3.5265355E-005	3.1944856E-004	3.2138921E-004	8.3700371E+001	-1.201314860777144E-008
3.1629551E+001	3.7215060E+002	3.4490205E+003	3.4690400E+003	-8.3841591E+001	6.260842542702449E+001	-1.1799848E-002	4.2743872E-005	1.4589195E+000	1.4421295E+000	1.000000000000000E+000	13	1.2886614E-001	3.7147493E-005	1.117339311591055E-004	0.0000000E+000	-1.0005648E+002	3.0924311E-005	2.8660064E-004	2.8826419E-004	8.3841591E+001	4.575862944613163E-008
2.8170074E+001	4.0751755E+002	3.8503191E+003	3.8718250E+003	-8.3958313E+001	6.341374581200944E+001	-1.1791981E-002	4.6433317E-005	1.4673557E+000	1.4511002E+000	1.000000000000000E+000	13	1.2882610E-001	3.3272707E-005	1.118022190261262E-004	0.0000000E+000	-1.0008054E+002	2.7184087E-005	2.5684157E-004	2.5827615E-004	8.3958313E+001	6.828786702074805E-008
2.5104435E+001	4.4726746E+002	4.2967876E+003	4.3200039E+003	-8.4057289E+001	6.416890246118419E+001	-1.1797834E-002	4.3764332E-005	1.4754544E+000	1.4596385E+000	1.000000000000000E+000	13	1.2879556E-001	2.9813760E-005	1.118047843145022E-004	0.0000000E+000	-1.0010460E+002	2.3966184E-005	2.3023727E-004	2.3148127E-004	8.4057289E+001	2.565288375981894E-009
2.2385387E+001	4.9320547E+002	4.7915903E+003	4.8169067E+003	-8.4123154E+001	6.485544209377258E+001	-1.1802458E-002	3.8270024E-005	1.4838016E+000	1.4682456E+000	1.000000000000000E+000	13	1.2876625E-001	2.6732147E-005	1.117589892627746E-004	0.0000000E+000	-1.0008855E+002	2.1256496E-005	2.0651100E-004	2.0760210E-004	8.4123154E+001	-4.579505172760934E-008
1.9955299E+001	5.4454346E+002	5.3452158E+003	5.3728818E+003	-8.4183067E+001	6.561719938329770E+001	-1.1800333E-002	4.0597861E-005	1.4920955E+000	1.4767690E+000	1.000000000000000E+000	13	1.2875162E-001	2.3963234E-005	1.117392765672627E-004	0.0000000E+000	-1.0002441E+002	1.8863306E-005	1.8516148E-004	1.8611985E-004	8.4183067E+001	-1.971269551187386E-008
1.7796129E+001	6.0519476E+002	5.9598447E+003	5.9904932E+003	-8.4201752E+001	6.646154062336427E+001	-1.1803343E-002	3.9885457E-005	1.5005817E+000	1.4852664E+000	1.000000000000000E+000	13	1.2873191E-001	2.1489366E-005	1.117443994873961E-004	0.0000000E+000	-1.0007252E+002	1.6864367E-005	1.6607711E-004	1.6693116E-004	8.4201752E+001	5.122920133446957E-009
1.5857576E+001	6.7430377E+002	6.6481836E+003	6.6822925E+003	-8.4208481E+001	6.718395009773667E+001	-1.1784896E-002	4.3667140E-005	1.5096639E+000	1.4942915E+000	1.000000000000000E+000	13	1.2871686E-001	1.9262379E-005	1.118550672764065E-004	0.0000000E+000	-1.0010460E+002	1.5100961E-005	1.4888539E-004	1.4964925E-004	8.4208481E+001	1.106677890103249E-007
1.4118974E+001	7.5357330E+002	7.4224927E+003	7.4606479E+003	-8.4202873E+001	6.798625704247388E+001	-1.1800761E-002	4.2594336E-005	1.5186833E+000	1.5031893E+000	1.000000000000000E+000	13	1.2870944E-001	1.7251778E-005	1.117974097762352E-004	0.0000000E+000	-1.0008054E+002	1.3538557E-005	1.3335112E-004	1.3403661E-004	8.4202873E+001	-5.765750017124114E-008
1.2600808E+001	8.4391260E+002	8.2695947E+003	8.3125439E+003	-8.4173134E+001	6.887685759147280E+001	-1.1796548E-002	3.9618066E-005	1.5273463E+000	1.5116041E+000	1.000000000000000E+000	13	1.2870063E-001	1.5482701E-005	1.117817741581801E-004	0.0000000E+000	-1.0007252E+002	1.2213203E-005	1.1967855E-004	1.2030012E-004	8.4173134E+001	-1.563561805515681E-008
1.1224856E+001	9.4920306E+002	9.2252080E+003	9.2739121E+003	-8.4125374E+001	6.956090381063404E+001	-1.1797853E-002	4.4389635E-005	1.5369622E+000	1.5208610E+000	1.000000000000000E+000	13	1.2869567E-001	1.3877171E-005	1.118496547488976E-004	0.0000000E+000	-1.0006450E+002	1.1036552E-005	1.0726306E-004	1.0782936E-004	8.4125374E+001	6.788059071751644E-008
1.0003201E+001	1.0749661E+003	1.0289091E+004	1.0345093E+004	-8.4035591E+001	7.032068790007907E+001	-1.1789296E-002	4.2515901E-005	1.5463371E+000	1.5296406E+000	1.000000000000000E+000	13	1.2869096E-001	1.2439807E-005	1.118824434731733E-004	0.0000000E+000	-1.0008855E+002	1.0044440E-005	9.6140910E-005	9.6664189E-005	8.4035591E+001	3.278872427573982E-008
8.9183798E+000	1.2085409E+003	1.1459329E+004	1.1522881E+004	-8.3979645E+001	7.116402084677247E+001	-1.1795597E-002	3.9662624E-005	1.5573096E+000	1.5401791E+000	1.000000000000000E+000	13	1.2868312E-001	1.1167617E-005	1.118323687218821E-004	0.0000000E+000	-1.0008855E+002	9.1020447E-006	8.6305212E-005	8.6783853E-005	8.3979645E+001	-5.007475129120416E-008
7.9395342E+000	1.3707189E+003	1.2788557E+004	1.2861806E+004	-8.3882210E+001	7.210270243805280E+001	-1.1797387E-002	3.9639330E-005	1.5674857E+000	1.5496826E+000	1.000000000000000E+000	13	1.2868288E-001	1.0005040E-005	1.118917702088004E-004	0.0000000E+000	-1.0012064E+002	8.2859906E-006	7.7306788E-005	7.7749581E-005	8.3882210E+001	5.940148691823571E-008
7.0765405E+000	1.5560490E+003	1.4247204E+004	1.4331927E+004	-8.3766983E+001	7.266102686454542E+001	-1.1802066E-002	3.5472083E-005	1.5785905E+000	1.5599822E+000	1.000000000000000E+000	13	1.2867154E-001	8.9779651E-006	1.118849973240695E-004	0.0000000E+000	-1.0009658E+002	7.5755493E-006	6.9361820E-005	6.9774287E-005	8.3766983E+001	-6.772884730810690E-009
6.3105822E+000	1.7797144E+003	1.5892709E+004	1.5992048E+004	-8.3610466E+001	7.328118236063165E+001	-1.1796325E-002	1.8881368E-005	1.5869117E+000	1.5672579E+000	1.000000000000000E+000	13	1.2867716E-001	8.0463215E-006	1.118475750297643E-004	0.0000000E+000	-1.0010460E+002	6.9589214E-006	6.2142652E-005	6.2531079E-005	8.3610466E+001	-3.742229430523725E-008
5.6205034E+000	2.0040942E+003	1.7735500E+004	1.7848371E+004	-8.3552979E+001	7.396765001996755E+001	-1.1800519E-002	4.0504365E-005	1.5966197E+000	1.5764899E+000	1.000000000000000E+000	13	1.2867706E-001	7.2094567E-006	1.118203902371604E-004	0.0000000E+000	-1.0005648E+002	6.2910199E-006	5.5673208E-005	5.6027522E-005	8.3552979E+001	-2.718479260389916E-008
5.0144415E+000	2.3480671E+003	1.9807928E+004	1.9946613E+004	-8.3239601E+001	7.472516882923082E+001	-1.1811929E-002	7.5624528E-005	1.6023542E+000	1.5801499E+000	1.000000000000000E+000	13	1.2866782E-001	6.4506098E-006	1.118520411536499E-004	0.0000000E+000	-1.0010460E+002	5.9016352E-006	4.9785249E-005	5.0133825E-005	8.3239601E+001	3.165091648951843E-008
4.4693937E+000	2.6475596E+003	2.1939086E+004	2.2098260E+004	-8.3118950E+001	7.556649868251407E+001	-1.1802337E-002	4.6717443E-005	1.6231288E+000	1.5998302E+000	1.000000000000000E+000	13	1.2866980E-001	5.8226215E-006	1.119425621013749E-004	0.0000000E+000	-1.0004044E+002	5.4216257E-006	4.4926481E-005	4.5252433E-005	8.3118950E+001	9.052094772494764E-008
3.9778514E+000	3.0514956E+003	2.4499920E+004	2.4689223E+004	-8.2900299E+001	7.650315403370769E+001	-1.1796036E-002	2.8487784E-005	1.6330780E+000	1.6081309E+000	1.000000000000000E+000	13	1.2867406E-001	5.2117502E-006	1.119372087235919E-004	0.0000000E+000	-1.0005648E+002	5.0060830E-006	4.0192946E-005	4.0503503E-005	8.2900299E+001	-5.353377782938546E-009
3.5511365E+000	3.6558367E+003	2.7309975E+004	2.7553582E+004	-8.2375458E+001	7.787543009888032E+001	-1.1780385E-002	-3.1522683E-005	1.6410865E+000	1.6121963E+000	1.000000000000000E+000	14	1.2869097E-001	4.6705713E-006	1.119045117025623E-004	0.0000000E+000	-1.0007252E+002	4.8153793E-006	3.5972047E-005	3.6292920E-005	8.2375458E+001	-3.269702102968238E-008
3.1603966E+000	3.9443320E+003	3.0448469E+004	3.0702883E+004	-8.2618935E+001	7.903722548738006E+001	-1.1799615E-002	2.4010546E-005	1.6539147E+000	1.6266185E+000	1.000000000000000E+000	14	1.2869689E-001	4.1916874E-006	1.118742969690304E-004	0.0000000E+000	-1.0007252E+002	4.1842281E-006	3.2300344E-005	3.2570231E-005	8.2618935E+001	-3.021473353187075E-008
2.8183618E+000	4.5923188E+003	3.3613855E+004	3.3926105E+004	-8.2220421E+001	8.033161877557541E+001	-1.1791276E-002	7.9274405E-006	1.6799835E+000	1.6492014E+000	1.000000000000000E+000	14	1.2868583E-001	3.7931211E-006	1.119766281325190E-004	0.0000000E+000	-1.0005648E+002	3.9899201E-006	2.9204535E-005	2.9475827E-005	8.2220421E+001	1.023311634885927E-007
2.5136740E+000	5.4370200E+003	3.7422957E+004	3.7815855E+004	-8.1733582E+001	8.177665817754314E+001	-1.1790940E-002	-9.1604734E-006	1.6918937E+000	1.6569196E+000	1.000000000000000E+000	14	1.2868237E-001	3.4028683E-006	1.118892589876246E-004	0.0000000E+000	-1.0011262E+002	3.8020087E-006	2.6169189E-005	2.6443935E-005	8.1733582E+001	-8.736914489438133E-008
2.2398219E+000	6.1397769E+003	4.1709410E+004	4.2158887E+004	-8.1625992E+001	8.339137169418973E+001	-1.1791990E-002	1.6183729E-005	1.7036195E+000	1.6674868E+000	1.000000000000000E+000	14	1.2868233E-001	3.0523181E-006	1.119066942923752E-004	0.0000000E+000	-1.0004846E+002	3.4544137E-006	2.3466902E-005	2.3719791E-005	8.1625992E+001	1.743530475060268E-008
1.9970604E+000	6.9295298E+003	4.6190477E+004	4.6707371E+004	-8.1468071E+001	8.519571337993693E+001	-1.1793873E-002	-2.5748668E-006	1.7253470E+000	1.6873707E+000	1.000000000000000E+000	14	1.2867826E-001	2.7549884E-006	1.119760422566813E-004	0.0000000E+000	-1.0009658E+002	3.1763836E-006	2.1172960E-005	2.1409896E-005	8.1468071E+001	6.934796430606630E-008
1.7796129E+000	8.0687422E+003	5.1111137E+004	5.1744109E+004	-8.1028946E+001	8.721384235577716E+001	-1.1790508E-002	5.2869268E-006	1.7497623E+000	1.7072153E+000	1.000000000000000E+000	14	1.2867844E-001	2.4868230E-006	1.118677613358862E-004	0.0000000E+000	-1.0016073E+002	3.0135886E-006	1.9089463E-005	1.9325871E-005	8.1028946E+001	-1.082809207950418E-007
1.5846854E+000	9.4273018E+003	5.6738180E+004	5.7516043E+004	-8.0566231E+001	8.947301616973709E+001	-1.1789438E-002	7.0837286E-006	1.7701159E+000	1.7225605E+000	1.000000000000000E+000	14	1.2867470E-001	2.2371967E-006	1.119882663607192E-004	0.0000000E+000	-1.0007252E+002	2.8497684E-006	1.7151315E-005	1.7386454E-005	8.0566231E+001	1.205050248330073E-007
1.4122382E+000	1.0895418E+004	6.2959598E+004	6.3895391E+004	-8.0181969E+001	9.200214852983481E+001	-1.1782333E-002	2.5540143E-007	1.7899884E+000	1.7379410E+000	1.000000000000000E+000	14	1.2867419E-001	2.0138259E-006	1.118973391518002E-004	0.0000000E+000	-1.0007252E+002	2.6687310E-006	1.5421367E-005	1.5650581E-005	8.0181969E+001	-9.092720891901282E-008
1.2596743E+000	1.2506790E+004	6.9790680E+004	7.0902461E+004	-7.9840195E+001	9.483089122423553E+001	-1.1786848E-002	8.1159105E-006	1.8103578E+000	1.7540286E+000	1.000000000000000E+000	14	1.2867728E-001	1.8148493E-006	1.119560358978764E-004	0.0000000E+000	-1.0008855E+002	2.4878439E-006	1.3882728E-005	1.4103883E-005	7.9840195E+001	5.869674607614976E-008
1.1224856E+000	1.4334604E+004	7.7281625E+004	7.8599813E+004	-7.9491898E+001	9.799714073460200E+001	-1.1780835E-002	1.2367592E-006	1.8346915E+000	1.7736689E+000	1.000000000000000E+000	14	1.2867573E-001	1.6370997E-006	1.119460943103693E-004	0.0000000E+000	-1.0006450E+002	2.3202927E-006	1.2509307E-005	1.2722677E-005	7.9491898E+001	-9.941587507053280E-009
1.0000638E+000	1.6439152E+004	8.5510172E+004	8.7076031E+004	-7.9117775E+001	1.015461133565113E+002	-1.1781641E-002	5.7833413E-006	1.8611212E+000	1.7947872E+000	1.000000000000000E+000	14	1.2867297E-001	1.4777082E-006	1.119231175611804E-004	0.0000000E+000	-1.0013667E+002	2.1681144E-006	1.1277700E-005	1.1484217E-005	7.9117775E+001	-2.297674918887551E-008