EC-Lab ASCII FILE
Nb header lines : 75                          

Potentio Electrochemical Impedance Spectroscopy

Run on channel : 1 (SN 20909)
User : 
CE vs. WE compliance from -10 V to 10 V
Electrode connection : standard
Ewe ctrl range : min = -10.00 V, max = 10.00 V
Safety Limits :
	Do not start on E overload
Acquisition started on : 01/24/2020 09:56:07
Technique started on : 01/24/2020 09:56:08
Saved on :
	File : DE_40_13_60.mpr
	Directory : P:\Chemistry\Data\VMP3\Kyler\DOE\DE_40\2ND 60C\
	Host : 10.0.4.99
Device : VMP3 (SN 0183)
Address : USB
EC-Lab for windows v11.33 (software)
Internet server v11.32 (firmware)
Command interpretor v11.33 (firmware)
Electrode material : 
Initial state : 
Electrolyte : 
Comments : 
Electrode surface area : 0.001 cm²
Characteristic mass : 0.001 g
Equivalent Weight : 0.000 g/eq.
Density : 0.000 g/cm3
Record Analogic IN 1
Cycle Definition : Charge/Discharge alternance
External device configuration :
   device type : Thermostat
   device name : Other
   Analog OUT : 
      mode : E/V
      unit : T/°C
      max : 400.000 at 5.000 V
      min : -100.000 at 0.000 V
      current : 0.000
   Analog IN 1 : 
      unit : T/°C
      max : 400.000 at 5.000 V
      min : -100.000 at 0.000 V
Mode                Single sine         
E (V)               0.0000              
vs.                 Eoc                 
tE (h:m:s)          0:00:0.0000         
record              0                   
dI                  1.000               
unit dI             mA                  
dt (s)              0.000               
fi                  1.000               
unit fi             MHz                 
ff                  1.000               
unit ff             Hz                  
Nd                  20                  
Points              per decade          
spacing             Logarithmic         
Va (mV)             128.0               
pw                  0.50                
Na                  3                   
corr                0                   
E range min (V)     -10.000             
E range max (V)     10.000              
I Range             Auto                
Bandwidth           5                   
nc cycles           0                   
goto Ns'            0                   
nr cycles           0                   
inc. cycle          1                   

freq/Hz	Re(Z)/Ohm	-Im(Z)/Ohm	|Z|/Ohm	Phase(Z)/deg	time/s	<Ewe>/V	<I>/mA	Cs/µF	Cp/µF	cycle number	I Range	|Ewe|/V	|I|/A	(Q-Qo)/mA.h	Analog OUT/V	Analog IN 1/V	Re(Y)/Ohm-1	Im(Y)/Ohm-1	|Y|/Ohm-1	Phase(Y)/deg	dq/mA.h	
1.0000186E+006	4.9486881E+001	3.9153454E+001	6.3102650E+001	-3.8350643E+001	1.748485443036770E+000	-1.8271264E-001	2.7714095E-003	4.0648263E-003	1.5649013E-003	1.000000000000000E+000	11	1.5093144E-003	2.3918399E-005	7.107002620547671E-007	0.0000000E+000	-1.0008604E+002	1.2427818E-002	9.8327482E-003	1.5847195E-002	3.8350643E+001	7.107002620547671E-007
8.9124669E+005	5.3129578E+001	3.4374634E+001	6.3280071E+001	-3.2902710E+001	2.344472244643839E+000	-1.8219498E-001	2.8257200E-003	5.1949830E-003	1.5329443E-003	1.000000000000000E+000	11	2.3498191E-003	3.7133635E-005	1.152358694596842E-006	0.0000000E+000	-1.0008604E+002	1.3267908E-002	8.5842852E-003	1.5802763E-002	3.2902710E+001	4.416584325420749E-007
7.9433269E+005	5.6573231E+001	3.0871607E+001	6.4448326E+001	-2.8620981E+001	2.940493366302690E+000	-1.8175149E-001	2.7564799E-003	6.4902054E-003	1.4892021E-003	1.000000000000000E+000	11	3.5739786E-003	5.5454948E-005	1.628013228886428E-006	0.0000000E+000	-1.0004594E+002	1.3620333E-002	7.4325181E-003	1.5516307E-002	2.8620981E+001	4.756545342895857E-007
7.0794981E+005	5.9819023E+001	2.8088650E+001	6.6085457E+001	-2.5152895E+001	3.536494114639936E+000	-1.8133141E-001	2.7353915E-003	8.0036260E-003	1.4458948E-003	1.000000000000000E+000	11	5.2571744E-003	7.9551151E-005	2.086854803248166E-006	0.0000000E+000	-1.0004594E+002	1.3697065E-002	6.4316005E-003	1.5131922E-002	2.5152895E+001	4.588415743617385E-007
6.3095681E+005	6.2706993E+001	2.5907917E+001	6.7848267E+001	-2.2448374E+001	4.132475076272385E+000	-1.8093768E-001	2.7796235E-003	9.7361673E-003	1.4196311E-003	1.000000000000000E+000	11	7.4502868E-003	1.0980806E-004	2.485582193244126E-006	0.0000000E+000	-1.0006999E+002	1.3621924E-002	5.6280117E-003	1.4738770E-002	2.2448374E+001	3.987273899959594E-007
5.6234225E+005	6.5179924E+001	2.4027557E+001	6.9467590E+001	-2.0235617E+001	4.728474491246743E+000	-1.8059495E-001	2.8417739E-003	1.1779037E-002	1.4091738E-003	1.000000000000000E+000	11	1.0185549E-002	1.4662303E-004	2.708562823955920E-006	0.0000000E+000	-1.0007802E+002	1.3506705E-002	4.9790344E-003	1.4395203E-002	2.0235617E+001	2.229806307117949E-007
5.0120619E+005	6.7333221E+001	2.2260164E+001	7.0917397E+001	-1.8293734E+001	5.325475559598999E+000	-1.8031472E-001	2.6982548E-003	1.4265118E-002	1.4054860E-003	1.000000000000000E+000	11	1.3478839E-002	1.9006392E-004	3.069902089809249E-006	0.0000000E+000	-1.0006197E+002	1.3388249E-002	4.4261157E-003	1.4100912E-002	1.8293734E+001	3.613392658533284E-007
4.4668572E+005	6.9142387E+001	2.0606094E+001	7.2147629E+001	-1.6595322E+001	5.921487267914927E+000	-1.8006082E-001	2.7467813E-003	1.7291090E-002	1.4104887E-003	1.000000000000000E+000	11	1.7339153E-002	2.4032879E-004	3.485549014732695E-006	0.0000000E+000	-1.0006999E+002	1.3283124E-002	3.9586904E-003	1.3860470E-002	1.6595322E+001	4.156469249234458E-007
3.9810347E+005	7.0736031E+001	1.8983515E+001	7.3239059E+001	-1.5022559E+001	6.517481162882177E+000	-1.7990160E-001	2.7014301E-003	2.1059476E-002	1.4148660E-003	1.000000000000000E+000	11	2.1803267E-002	2.9770000E-004	3.949398189142408E-006	0.0000000E+000	-1.0007802E+002	1.3187278E-002	3.5390861E-003	1.3653916E-002	1.5022559E+001	4.638491744097136E-007
3.5480997E+005	7.2049751E+001	1.7450302E+001	7.4132851E+001	-1.3614749E+001	7.113484017871087E+000	-1.7979451E-001	2.6542149E-003	2.5705224E-002	1.4243145E-003	1.000000000000000E+000	11	2.6906805E-002	3.6295387E-004	4.077551233346134E-006	0.0000000E+000	-1.0009406E+002	1.3110253E-002	3.1752766E-003	1.3489297E-002	1.3614749E+001	1.281530442037261E-007
3.1622997E+005	7.3118187E+001	1.5973335E+001	7.4842613E+001	-1.2323182E+001	7.708493699465180E+000	-1.7972414E-001	2.7434269E-003	3.1508047E-002	1.4352079E-003	1.000000000000000E+000	11	3.2722548E-002	4.3721814E-004	4.626482006964377E-006	0.0000000E+000	-1.0008604E+002	1.3053517E-002	2.8516599E-003	1.3361372E-002	1.2323182E+001	5.489307736182431E-007
2.8183453E+005	7.3966286E+001	1.4570354E+001	7.5387711E+001	-1.1143812E+001	8.303479007707210E+000	-1.7969422E-001	2.6465652E-003	3.8757503E-002	1.4477546E-003	1.000000000000000E+000	11	3.9307855E-002	5.2140933E-004	4.152788952015625E-006	0.0000000E+000	-1.0013416E+002	1.3014656E-002	2.5637106E-003	1.3264761E-002	1.1143812E+001	-4.736930549487521E-007
2.5118764E+005	7.4638527E+001	1.3274808E+001	7.5809830E+001	-1.0084867E+001	8.899479329324095E+000	-1.7966206E-001	2.5625832E-003	4.7730241E-002	1.4635214E-003	1.000000000000000E+000	11	4.6715874E-002	6.1622448E-004	4.818821513035801E-006	0.0000000E+000	-1.0007802E+002	1.2987095E-002	2.3098150E-003	1.3190902E-002	1.0084867E+001	6.660325610201754E-007
2.2387173E+005	7.5142532E+001	1.2105103E+001	7.6111328E+001	-9.1514521E+000	9.494472584250616E+000	-1.7961249E-001	2.6333234E-003	5.8728967E-002	1.4855620E-003	1.000000000000000E+000	11	5.4961890E-002	7.2212494E-004	3.947971023612708E-006	0.0000000E+000	-1.0011009E+002	1.2971412E-002	2.0896327E-003	1.3138649E-002	9.1514521E+000	-8.708504894230928E-007
1.9954350E+005	7.5522461E+001	1.1077598E+001	7.6330566E+001	-8.3446121E+000	1.009149677262758E+001	-1.7957914E-001	2.8005480E-003	7.2000742E-002	1.5164608E-003	1.000000000000000E+000	11	6.4019300E-002	8.3871122E-004	4.608745404925786E-006	0.0000000E+000	-1.0004594E+002	1.2962214E-002	1.9012912E-003	1.3100912E-002	8.3446121E+000	6.607743813130784E-007
1.7783180E+005	7.5818329E+001	1.0189423E+001	7.6499954E+001	-7.6542668E+000	1.068649168088450E+001	-1.7955662E-001	2.7251500E-003	8.7833695E-002	1.5582528E-003	1.000000000000000E+000	11	7.3877044E-002	9.6571358E-004	6.687152099688926E-006	0.0000000E+000	-1.0006999E+002	1.2955430E-002	1.7411141E-003	1.3071903E-002	7.6542668E+000	2.078406694763140E-006
1.5848613E+005	7.6062553E+001	9.4322481E+000	7.6645149E+001	-7.0689597E+000	1.128247637583991E+001	-1.7951818E-001	2.8194007E-003	1.0646667E-001	1.6124073E-003	1.000000000000000E+000	11	8.4483735E-002	1.1022711E-003	6.506296503554849E-006	0.0000000E+000	-1.0010207E+002	1.2947965E-002	1.6056314E-003	1.3047140E-002	7.0689597E+000	-1.808555961340774E-007
1.4125594E+005	7.6261070E+001	8.7861900E+000	7.6765541E+001	-6.5721841E+000	1.187848877752549E+001	-1.7952590E-001	2.6271746E-003	1.2823685E-001	1.6798921E-003	1.000000000000000E+000	11	9.5870703E-002	1.2488768E-003	7.563773401029822E-006	0.0000000E+000	-1.0009406E+002	1.2941073E-002	1.4909668E-003	1.3026678E-002	6.5721841E+000	1.057476897474974E-006
1.2590930E+005	7.6433578E+001	8.2360344E+000	7.6876030E+001	-6.1501279E+000	1.247549307250301E+001	-1.7949238E-001	2.8894015E-003	1.5347731E-001	1.7615646E-003	1.000000000000000E+000	11	1.0816198E-001	1.4069662E-003	9.031258596747648E-006	0.0000000E+000	-1.0003791E+002	1.2933089E-002	1.3935940E-003	1.3007956E-002	6.1501279E+000	1.467485195717826E-006
1.1220494E+005	7.6594650E+001	7.7792926E+000	7.6988686E+001	-5.7993274E+000	1.293549056103802E+001	-1.7947647E-001	2.7227444E-003	1.8233417E-001	1.8616347E-003	1.000000000000000E+000	11	1.2154103E-001	1.5786869E-003	1.015213914755603E-005	0.0000000E+000	-1.0003791E+002	1.2922443E-002	1.3124606E-003	1.2988921E-002	5.7993274E+000	1.120880550808377E-006
1.0000371E+005	7.6733849E+001	7.4083905E+000	7.7090645E+001	-5.5146198E+000	1.339548375623417E+001	-1.7949174E-001	2.6779571E-003	2.1482268E-001	1.9839215E-003	1.000000000000000E+000	11	1.3601190E-001	1.7643113E-003	9.314073914403302E-006	0.0000000E+000	-1.0007802E+002	1.2911706E-002	1.2465811E-003	1.2971743E-002	5.5146198E+000	-8.380652331527226E-007
8.9129305E+004	7.6851204E+001	7.1148901E+000	7.7179848E+001	-5.2893701E+000	1.399249221125501E+001	-1.7940526E-001	2.8024400E-003	2.5097555E-001	2.1328484E-003	1.000000000000000E+000	11	1.3025030E-001	1.6876207E-003	1.391330583648394E-005	0.0000000E+000	-1.0009406E+002	1.2901577E-002	1.1944290E-003	1.2956750E-002	5.2893701E+000	4.599231922080637E-006
7.9433273E+004	7.6945091E+001	6.9015684E+000	7.7253990E+001	-5.1254134E+000	1.458847655952559E+001	-1.7934953E-001	2.9069530E-003	2.9031527E-001	2.3169871E-003	1.000000000000000E+000	11	1.2957832E-001	1.6773026E-003	1.574648356643350E-005	0.0000000E+000	-1.0004594E+002	1.2892558E-002	1.1563944E-003	1.2944316E-002	5.1254134E+000	1.833177729949563E-006
7.0794977E+004	7.7026100E+001	6.7613940E+000	7.7322289E+001	-5.0165968E+000	1.518447573450976E+001	-1.7932855E-001	2.7904951E-003	3.3249217E-001	2.5424038E-003	1.000000000000000E+000	11	1.2956002E-001	1.6755845E-003	1.432810712513876E-005	0.0000000E+000	-1.0007802E+002	1.2883341E-002	1.1309069E-003	1.2932882E-002	5.0165968E+000	-1.418376441294742E-006
6.3093828E+004	7.7098572E+001	6.6988754E+000	7.7389046E+001	-4.9657960E+000	1.578048722949461E+001	-1.7930426E-001	2.8143830E-003	3.7655756E-001	2.8214748E-003	1.000000000000000E+000	11	1.2961470E-001	1.6748455E-003	1.564347994240881E-005	0.0000000E+000	-1.0006999E+002	1.2873224E-002	1.1185178E-003	1.2921725E-002	4.9657960E+000	1.315372817270045E-006
5.6237012E+004	7.7154472E+001	6.7100563E+000	7.7445709E+001	-4.9704566E+000	1.637747789788409E+001	-1.7928408E-001	2.7130430E-003	4.2176619E-001	3.1661345E-003	1.000000000000000E+000	11	1.2944648E-001	1.6714480E-003	1.681305691328210E-005	0.0000000E+000	-1.0007802E+002	1.2863715E-002	1.1187459E-003	1.2912272E-002	4.9704566E+000	1.169576970873295E-006
5.0122477E+004	7.7213142E+001	6.8014097E+000	7.7512115E+001	-5.0339727E+000	1.697348725949996E+001	-1.7925918E-001	2.7735094E-003	4.6686214E-001	3.5945734E-003	1.000000000000000E+000	11	1.2946686E-001	1.6702791E-003	1.614471937644218E-005	0.0000000E+000	-1.0008604E+002	1.2851448E-002	1.1320348E-003	1.2901209E-002	5.0339727E+000	-6.683375368399236E-007
4.4666715E+004	7.7263657E+001	6.9753594E+000	7.7577888E+001	-5.1586752E+000	1.756847443440347E+001	-1.7922734E-001	2.9147922E-003	5.1082188E-001	4.1297791E-003	1.000000000000000E+000	11	1.2932196E-001	1.6669951E-003	1.951946138371972E-005	0.0000000E+000	-1.0009406E+002	1.2838059E-002	1.1590193E-003	1.2890271E-002	5.1586752E+000	3.374742007277543E-006
3.9814063E+004	7.7321251E+001	7.2279539E+000	7.7658348E+001	-5.3404627E+000	1.802847810959793E+001	-1.7922522E-001	2.9398035E-003	5.5305493E-001	4.7909622E-003	1.000000000000000E+000	11	1.4071894E-001	1.8120259E-003	2.126128135184344E-005	0.0000000E+000	-9.9989792E+001	1.2821020E-002	1.1985028E-003	1.2876916E-002	5.3404627E+000	1.741819968123716E-006
3.5480996E+004	7.7372849E+001	7.5677137E+000	7.7742058E+001	-5.5862398E+000	1.862447200456518E+001	-1.7920750E-001	2.9394266E-003	5.9273368E-001	5.6166449E-003	1.000000000000000E+000	11	1.3041213E-001	1.6774979E-003	2.015307287512244E-005	0.0000000E+000	-1.0005396E+002	1.2801961E-002	1.2521392E-003	1.2863050E-002	5.5862398E+000	-1.108208476721001E-006
3.1621143E+004	7.7434364E+001	8.0007801E+000	7.7846603E+001	-5.8990607E+000	1.908447434645495E+001	-1.7920479E-001	2.9638791E-003	6.2908632E-001	6.6450089E-003	1.000000000000000E+000	11	1.4034532E-001	1.8028446E-003	2.197206016540359E-005	0.0000000E+000	-1.0007802E+002	1.2777751E-002	1.3202404E-003	1.2845776E-002	5.8990607E+000	1.818987290281157E-006
2.8188096E+004	7.7490944E+001	8.5252361E+000	7.7958488E+001	-6.2781987E+000	1.968048848139006E+001	-1.7918327E-001	2.8895964E-003	6.6228968E-001	7.9201609E-003	1.000000000000000E+000	11	1.3019384E-001	1.6700407E-003	2.457479070162582E-005	0.0000000E+000	-1.0006999E+002	1.2750410E-002	1.4027478E-003	1.2827340E-002	6.2781987E+000	2.602730536222224E-006
2.5116910E+004	7.7567360E+001	9.1462297E+000	7.8104729E+001	-6.7248874E+000	2.014048007657402E+001	-1.7919649E-001	2.8582432E-003	6.9280630E-001	9.5003881E-003	1.000000000000000E+000	11	1.3836780E-001	1.7715675E-003	2.620638261659122E-005	0.0000000E+000	-1.0007802E+002	1.2715233E-002	1.4992962E-003	1.2803322E-002	6.7248874E+000	1.631591914965408E-006
2.2389027E+004	7.7640778E+001	9.8820896E+000	7.8267143E+001	-7.2535839E+000	2.073647829159745E+001	-1.7917193E-001	2.8701855E-003	7.1934319E-001	1.1467658E-002	1.000000000000000E+000	11	1.2988950E-001	1.6595662E-003	2.481014030841470E-005	0.0000000E+000	-1.0005396E+002	1.2674502E-002	1.6132060E-003	1.2776754E-002	7.2535839E+000	-1.396242308176523E-006
1.9948783E+004	7.7736923E+001	1.0725256E+001	7.8473312E+001	-7.8554263E+000	2.119647455340601E+001	-1.7917413E-001	2.9314037E-003	7.4386829E-001	1.3895284E-002	1.000000000000000E+000	11	1.3622418E-001	1.7359300E-003	2.418107114208396E-005	0.0000000E+000	-1.0008604E+002	1.2623605E-002	1.7416613E-003	1.2743186E-002	7.8554263E+000	-6.290691663307374E-007
1.7786895E+004	7.7830322E+001	1.1697166E+001	7.8704399E+001	-8.5470495E+000	2.179247746171313E+001	-1.7916559E-001	2.8718649E-003	7.6496112E-001	1.6896730E-002	1.000000000000000E+000	11	1.2933454E-001	1.6432949E-003	2.495961457756089E-005	0.0000000E+000	-1.0010207E+002	1.2564662E-002	1.8883508E-003	1.2705770E-002	8.5470495E+000	7.785434354769282E-007
1.5847686E+004	7.7954056E+001	1.2808398E+001	7.8999306E+001	-9.3307276E+000	2.225249497688492E+001	-1.7916030E-001	2.9588374E-003	7.8407836E-001	2.0611165E-002	1.000000000000000E+000	11	1.3397099E-001	1.6958503E-003	2.432967414499985E-005	0.0000000E+000	-1.0011009E+002	1.2490856E-002	2.0523351E-003	1.2658339E-002	9.3307276E+000	-6.299404325610456E-007
1.4121879E+004	7.8096634E+001	1.4063184E+001	7.9352737E+001	-1.0208088E+001	2.271247697211220E+001	-1.7916697E-001	2.8955715E-003	8.0139011E-001	2.5170246E-002	1.000000000000000E+000	11	1.3799399E-001	1.7389947E-003	2.583195770645721E-005	0.0000000E+000	-1.0006999E+002	1.2402478E-002	2.2333656E-003	1.2601960E-002	1.0208088E+001	1.502283561457362E-006
1.2590932E+004	7.8251762E+001	1.5477643E+001	7.9767761E+001	-1.1188287E+001	2.330848265372333E+001	-1.7915598E-001	2.8834357E-003	8.1669033E-001	3.0747676E-002	1.000000000000000E+000	11	1.2937930E-001	1.6219498E-003	2.810829205325960E-005	0.0000000E+000	-1.0007802E+002	1.2298136E-002	2.4324839E-003	1.2536393E-002	1.1188287E+001	2.276334346802390E-006
1.1217711E+004	7.8444138E+001	1.7081324E+001	8.0282341E+001	-1.2284475E+001	2.376748184885946E+001	-1.7914945E-001	2.9078841E-003	8.3060467E-001	3.7600826E-002	1.000000000000000E+000	11	1.3201502E-001	1.6443842E-003	2.936595601624706E-005	0.0000000E+000	-1.0006999E+002	1.2170836E-002	2.6502172E-003	1.2456039E-002	1.2284475E+001	1.257663962987457E-006
1.0002229E+004	7.8666786E+001	1.8860680E+001	8.0896156E+001	-1.3482408E+001	2.422747651071404E+001	-1.7915088E-001	2.9069530E-003	8.4365708E-001	4.5859031E-002	1.000000000000000E+000	11	1.3415593E-001	1.6583721E-003	3.121277344457728E-005	0.0000000E+000	-1.0006197E+002	1.2020862E-002	2.8820501E-003	1.2361526E-002	1.3482408E+001	1.846817428330220E-006
8.9149297E+003	7.8926003E+001	2.0869429E+001	8.1638512E+001	-1.4811047E+001	2.470990565366810E+001	-1.7913641E-001	3.0314359E-003	8.5544407E-001	5.5901390E-002	1.000000000000000E+000	11	1.3590580E-001	1.6647265E-003	3.161227922482067E-005	0.0000000E+000	-1.0011009E+002	1.1842133E-002	3.1312690E-003	1.2249121E-002	1.4811047E+001	3.995057802433919E-007
7.9439976E+003	7.9221420E+001	2.3107422E+001	8.2522644E+001	-1.6260986E+001	2.523600047864602E+001	-1.7912637E-001	3.1049696E-003	8.6702085E-001	6.7980796E-002	1.000000000000000E+000	11	1.3726881E-001	1.6634079E-003	3.223193708142369E-005	0.0000000E+000	-1.0012614E+002	1.1633124E-002	3.3931667E-003	1.2117886E-002	1.6260986E+001	6.196578566030229E-007
7.0822334E+003	7.9563011E+001	2.5602154E+001	8.3580757E+001	-1.7837378E+001	2.581287149272976E+001	-1.7911650E-001	3.1773809E-003	8.7775517E-001	8.2359523E-002	1.000000000000000E+000	11	1.3831508E-001	1.6548675E-003	3.419101748389140E-005	0.0000000E+000	-1.0009406E+002	1.1389341E-002	3.6649150E-003	1.1964477E-002	1.7837378E+001	1.959080402467710E-006
6.3077344E+003	7.9958229E+001	2.8398996E+001	8.4851761E+001	-1.9553659E+001	2.644655288275681E+001	-1.7910241E-001	3.0978767E-003	8.8847202E-001	9.9524044E-002	1.000000000000000E+000	11	1.3909936E-001	1.6393220E-003	3.330519355541522E-005	0.0000000E+000	-1.0009406E+002	1.1105585E-002	3.9444030E-003	1.1785259E-002	1.9553659E+001	-8.858239284761821E-007
5.6210552E+003	8.0414085E+001	3.1497494E+001	8.6362709E+001	-2.1389843E+001	2.714726307606907E+001	-1.7909953E-001	3.0965698E-003	8.9893079E-001	1.1957097E-001	1.000000000000000E+000	11	1.3964437E-001	1.6169521E-003	3.311544036132465E-005	0.0000000E+000	-1.0006197E+002	1.0781512E-002	4.2230235E-003	1.1579072E-002	2.1389843E+001	-1.897531940905738E-007
5.0116035E+003	8.0939529E+001	3.4922855E+001	8.8152214E+001	-2.3338675E+001	2.790768255223520E+001	-1.7910889E-001	3.0165028E-003	9.0935552E-001	1.4272062E-001	1.000000000000000E+000	11	1.3998941E-001	1.5880419E-003	3.267027632875316E-005	0.0000000E+000	-1.0006197E+002	1.0415838E-002	4.4941055E-003	1.1344015E-002	2.3338675E+001	-4.451640325714817E-007
4.4664292E+003	8.1542892E+001	3.8731693E+001	9.0273956E+001	-2.5407042E+001	2.866766496166383E+001	-1.7909466E-001	3.1150435E-003	9.2001134E-001	1.6935624E-001	1.000000000000000E+000	11	1.4017272E-001	1.5527481E-003	3.198863017746610E-005	0.0000000E+000	-1.0007802E+002	1.0006015E-002	4.7527123E-003	1.1077392E-002	2.5407042E+001	-6.816461512870669E-007
3.9812742E+003	8.2237823E+001	4.2941895E+001	9.2774277E+001	-2.7572086E+001	2.942768697109568E+001	-1.7909166E-001	3.1432230E-003	9.3092954E-001	1.9944543E-001	1.000000000000000E+000	11	1.4022148E-001	1.5114263E-003	3.334018161680756E-005	0.0000000E+000	-1.0004594E+002	9.5546870E-003	4.9891439E-003	1.0778850E-002	2.7572086E+001	1.351551439341463E-006
3.5465955E+003	8.3043465E+001	4.7630527E+001	9.5733398E+001	-2.9836920E+001	3.018692540714983E+001	-1.7909451E-001	3.1714037E-003	9.4215661E-001	2.3322061E-001	1.000000000000000E+000	11	1.4016970E-001	1.4641671E-003	3.326055590076996E-005	0.0000000E+000	-1.0006999E+002	9.0610497E-003	5.1970687E-003	1.0445676E-002	2.9836920E+001	-7.962571603760123E-008
3.1610112E+003	8.3959076E+001	5.2791393E+001	9.9176903E+001	-3.2160667E+001	3.094670250991476E+001	-1.7908759E-001	3.1794289E-003	9.5374221E-001	2.7023160E-001	1.000000000000000E+000	11	1.4003596E-001	1.4119815E-003	3.310041869523896E-005	0.0000000E+000	-1.0006197E+002	8.5358461E-003	5.3671291E-003	1.0082993E-002	3.2160667E+001	-1.601372055309996E-007
2.8172952E+003	8.5007576E+001	5.8496330E+001	1.0318967E+002	-3.4533058E+001	3.170693971932633E+001	-1.7910233E-001	3.1036539E-003	9.6573770E-001	3.1034440E-001	1.000000000000000E+000	11	1.3984044E-001	1.3551787E-003	3.260674870245081E-005	0.0000000E+000	-1.0004594E+002	7.9833493E-003	5.4935887E-003	9.6908920E-003	3.4533058E+001	-4.936699927881477E-007
2.5108032E+003	8.6182304E+001	6.4776871E+001	1.0781203E+002	-3.6929482E+001	3.246670735544467E+001	-1.7909798E-001	3.1872622E-003	9.7856003E-001	3.5325882E-001	1.000000000000000E+000	11	1.3958596E-001	1.2947160E-003	3.301569717286879E-005	0.0000000E+000	-1.0006197E+002	7.4145310E-003	5.5729556E-003	9.2754029E-003	3.6929482E+001	4.089484704179755E-007
2.2378516E+003	8.7516891E+001	7.1712227E+001	1.1314526E+002	-3.9331539E+001	3.322695195153938E+001	-1.7910407E-001	3.0862854E-003	9.9173510E-001	3.9839086E-001	1.000000000000000E+000	11	1.3932770E-001	1.2314057E-003	3.459623756659049E-005	0.0000000E+000	-1.0003791E+002	6.8362691E-003	5.6017083E-003	8.8381963E-003	3.9331539E+001	1.580540393721702E-006
1.9956389E+003	8.9004929E+001	7.9316200E+001	1.1921803E+002	-4.1705635E+001	3.398667564096831E+001	-1.7909914E-001	3.0209639E-003	1.0054866E+000	4.4505760E-001	1.000000000000000E+000	11	1.3905025E-001	1.1663525E-003	3.447044400056378E-005	0.0000000E+000	-1.0004594E+002	6.2622470E-003	5.5805636E-003	8.3879931E-003	4.1705635E+001	-1.257935660267098E-007
1.7782927E+003	9.0674644E+001	8.7750938E+001	1.2618288E+002	-4.4061226E+001	3.474695290371892E+001	-1.7910056E-001	2.9610542E-003	1.0199176E+000	4.9325079E-001	1.000000000000000E+000	11	1.3877487E-001	1.0997916E-003	3.603391764155175E-005	0.0000000E+000	-1.0005396E+002	5.6948857E-003	5.5112601E-003	7.9250056E-003	4.4061226E+001	1.563473640987974E-006
1.5855076E+003	9.2512909E+001	9.6999527E+001	1.3404308E+002	-4.6356197E+001	3.550667144649924E+001	-1.7908604E-001	3.1684022E-003	1.0348613E+000	5.4191685E-001	1.000000000000000E+000	11	1.3850500E-001	1.0332873E-003	3.686725877029919E-005	0.0000000E+000	-1.0005396E+002	5.1488895E-003	5.3985962E-003	7.4602882E-003	4.6356197E+001	8.333411287474323E-007
1.4118373E+003	9.4575195E+001	1.0731351E+002	1.4304076E+002	-4.8610332E+001	3.626822038929095E+001	-1.7909387E-001	3.1105450E-003	1.0504638E+000	5.9124887E-001	1.000000000000000E+000	11	1.3825464E-001	9.6654025E-004	3.826316630356531E-005	0.0000000E+000	-1.0011812E+002	4.6222950E-003	5.2448711E-003	6.9910144E-003	4.8610332E+001	1.395907533266123E-006
1.2587914E+003	9.6808472E+001	1.1854723E+002	1.5305334E+002	-5.0764111E+001	3.702795090540894E+001	-1.7909792E-001	3.1366739E-003	1.0665346E+000	6.3984108E-001	1.000000000000000E+000	11	1.3802114E-001	9.0178457E-004	3.928658814921638E-005	0.0000000E+000	-1.0006999E+002	4.1326415E-003	5.0606439E-003	6.5336698E-003	5.0764111E+001	1.023421845651076E-006
1.1217948E+003	9.9270630E+001	1.3098877E+002	1.6435545E+002	-5.2843109E+001	3.778643027474754E+001	-1.7908129E-001	3.2144983E-003	1.0831102E+000	6.8797481E-001	1.000000000000000E+000	11	1.3780415E-001	8.3845196E-004	3.986647319551735E-005	0.0000000E+000	-1.0001385E+002	3.6749595E-003	4.8491522E-003	6.0843737E-003	5.2843109E+001	5.798850463009655E-007
1.0003201E+003	1.0193313E+002	1.4465244E+002	1.7695956E+002	-5.4828560E+001	3.854570967084146E+001	-1.7908245E-001	3.1982595E-003	1.0999056E+000	7.3495173E-001	1.000000000000000E+000	11	1.3761634E-001	7.7767106E-004	4.124941084939120E-005	0.0000000E+000	-1.0006197E+002	3.2551216E-003	4.6193157E-003	5.6510083E-003	5.4828560E+001	1.382937653873851E-006
8.9142657E+002	1.0484573E+002	1.5981512E+002	1.9113739E+002	-5.6733372E+001	3.930445624017739E+001	-1.7908615E-001	3.2249468E-003	1.1171633E+000	7.8101814E-001	1.000000000000000E+000	11	1.3745074E-001	7.1912009E-004	4.254065256276711E-005	0.0000000E+000	-1.0006197E+002	2.8698514E-003	4.3744817E-003	5.2318387E-003	5.6733372E+001	1.291241713375909E-006
7.9423773E+002	1.0800274E+002	1.7658371E+002	2.0699371E+002	-5.8549065E+001	4.006395958294161E+001	-1.7909384E-001	3.1553295E-003	1.1347991E+000	8.2585907E-001	1.000000000000000E+000	11	1.3730052E-001	6.6330767E-004	4.278408800263423E-005	0.0000000E+000	-1.0011812E+002	2.5206960E-003	4.1213199E-003	4.8310645E-003	5.8549065E+001	2.434354398671241E-007
7.0750946E+002	1.1143980E+002	1.9516293E+002	2.2473851E+002	-6.0273243E+001	4.082645911243162E+001	-1.7908449E-001	3.2105688E-003	1.1526316E+000	8.6922103E-001	1.000000000000000E+000	11	1.3717641E-001	6.1038230E-004	4.394862922389843E-005	0.0000000E+000	-1.0007802E+002	2.2064054E-003	3.8640464E-003	4.4496157E-003	6.0273243E+001	1.164541221264194E-006
6.3100964E+002	1.1510227E+002	2.1553589E+002	2.4434454E+002	-6.1896519E+001	4.158442762846244E+001	-1.7908686E-001	3.1519651E-003	1.1702120E+000	9.1053879E-001	1.000000000000000E+000	11	1.3706678E-001	5.6095701E-004	4.495915758501360E-005	0.0000000E+000	-9.9997810E+001	1.9278739E-003	3.6100589E-003	4.0925816E-003	6.1896519E+001	1.010528361115173E-006
5.6233929E+002	1.1908221E+002	2.3819398E+002	2.6630237E+002	-6.3437794E+001	4.234089843774564E+001	-1.7908061E-001	3.1611095E-003	1.1882038E+000	9.5061010E-001	1.000000000000000E+000	11	1.3699418E-001	5.1443098E-004	4.545839772204797E-005	0.0000000E+000	-1.0011009E+002	1.6791783E-003	3.3587737E-003	3.7551299E-003	6.3437794E+001	4.992401370343722E-007
5.0144415E+002	1.2331559E+002	2.6314688E+002	2.9060800E+002	-6.4891327E+001	4.309819703371613E+001	-1.7908764E-001	3.1894778E-003	1.2061445E+000	9.8896438E-001	1.000000000000000E+000	11	1.3690531E-001	4.7109960E-004	4.647600287590467E-005	0.0000000E+000	-1.0010207E+002	1.4601680E-003	3.1158971E-003	3.4410616E-003	6.4891327E+001	1.017605153856693E-006
4.4685895E+002	1.2792016E+002	2.9106512E+002	3.1793469E+002	-6.6275002E+001	4.410493393486831E+001	-1.7909136E-001	1.1966388E-003	1.2236564E+000	1.0255669E+000	1.000000000000000E+000	12	1.3967344E-001	4.3931487E-004	4.684538942652903E-005	0.0000000E+000	-1.0006197E+002	1.2655029E-003	2.8794818E-003	3.1453001E-003	6.6275002E+001	3.693865506243640E-007
3.9808920E+002	1.3283250E+002	3.2201682E+002	3.4833792E+002	-6.7583763E+001	4.486773039778927E+001	-1.7909354E-001	1.2184377E-003	1.2415413E+000	1.0610033E+000	1.000000000000000E+000	12	1.3908988E-001	3.9929585E-004	4.699046572486016E-005	0.0000000E+000	-1.0004594E+002	1.0947196E-003	2.6538540E-003	2.8707755E-003	6.7583763E+001	1.450762983311305E-007
3.5465955E+002	1.3813423E+002	3.5640659E+002	3.8223907E+002	-6.8814919E+001	4.562795555387856E+001	-1.7909476E-001	1.1866529E-003	1.2591075E+000	1.0946721E+000	1.000000000000000E+000	12	1.3862380E-001	3.6266257E-004	4.748560766804763E-005	0.0000000E+000	-1.0007802E+002	9.4543397E-004	2.4393580E-003	2.6161638E-003	6.8814919E+001	4.951419431874636E-007
3.1631586E+002	1.4376743E+002	3.9423135E+002	4.1962775E+002	-6.9964211E+001	4.638490036316216E+001	-1.7909913E-001	1.1747635E-003	1.2762860E+000	1.1264759E+000	1.000000000000000E+000	12	1.3824260E-001	3.2944104E-004	4.742018444332967E-005	0.0000000E+000	-1.0003791E+002	8.1645470E-004	2.2388385E-003	2.3830645E-003	6.9964211E+001	-6.542322471796017E-008
2.8189429E+002	1.4983694E+002	4.3652454E+002	4.6152441E+002	-7.1055229E+001	4.714040570569341E+001	-1.7909239E-001	1.1845047E-003	1.2933772E+000	1.1570528E+000	1.000000000000000E+000	12	1.3792595E-001	2.9884867E-004	4.788935868461299E-005	0.0000000E+000	-1.0006999E+002	7.0344406E-004	2.0493651E-003	2.1667327E-003	7.1055229E+001	4.691742412833263E-007
2.5104436E+002	1.5638869E+002	4.8390002E+002	5.0854367E+002	-7.2090004E+001	4.789691795498948E+001	-1.7909233E-001	1.1670341E-003	1.3101288E+000	1.1862297E+000	1.000000000000000E+000	12	1.3766511E-001	2.7070459E-004	4.801223138058493E-005	0.0000000E+000	-1.0005396E+002	6.0471229E-004	1.8711091E-003	1.9663994E-003	7.2090004E+001	1.228726959719414E-007
2.2392513E+002	1.6333667E+002	5.3583057E+002	5.6017255E+002	-7.3047264E+001	4.865971449790231E+001	-1.7909200E-001	1.1734337E-003	1.3264468E+000	1.2136716E+000	1.000000000000000E+000	12	1.3745132E-001	2.4537317E-004	4.813769118203911E-005	0.0000000E+000	-1.0009406E+002	5.2052306E-004	1.7075910E-003	1.7851642E-003	7.3047264E+001	1.254598014541775E-007
1.9955299E+002	1.7086095E+002	5.9404657E+002	6.1813007E+002	-7.3953590E+001	4.942021928066970E+001	-1.7908001E-001	1.1691598E-003	1.3425837E+000	1.2400026E+000	1.000000000000000E+000	12	1.3727669E-001	2.2208384E-004	4.834432601019055E-005	0.0000000E+000	-1.0006999E+002	4.4718079E-004	1.5547506E-003	1.6177825E-003	7.3953590E+001	2.066348281514363E-007
1.7778128E+002	1.7900674E+002	6.5907861E+002	6.8295538E+002	-7.4804932E+001	5.018823115710984E+001	-1.7908457E-001	1.1719966E-003	1.3583037E+000	1.2649888E+000	1.000000000000000E+000	12	1.3713056E-001	2.0078993E-004	4.874098753423702E-005	0.0000000E+000	-1.0008604E+002	3.8378220E-004	1.4130339E-003	1.4642245E-003	7.4804932E+001	3.966615240464730E-007
1.5842838E+002	1.8774980E+002	7.3135571E+002	7.5507031E+002	-7.5602234E+001	5.095472887357755E+001	-1.7908698E-001	1.1684502E-003	1.3735944E+000	1.2886680E+000	1.000000000000000E+000	12	1.3701774E-001	1.8146355E-004	4.889149185992412E-005	0.0000000E+000	-1.0010207E+002	3.2930987E-004	1.2827850E-003	1.3243799E-003	7.5602234E+001	1.505043256870979E-007
1.4131134E+002	1.9723058E+002	8.1121594E+002	8.3484802E+002	-7.6334846E+001	5.170790136267897E+001	-1.7909402E-001	1.1762137E-003	1.3883746E+000	1.3108855E+000	1.000000000000000E+000	12	1.3692403E-001	1.6401072E-004	4.928786679018554E-005	0.0000000E+000	-1.0006197E+002	2.8298231E-004	1.1639161E-003	1.1978229E-003	7.6334846E+001	3.963749302614194E-007
1.2584569E+002	2.0751828E+002	9.0129199E+002	9.2487354E+002	-7.7033882E+001	5.246339795851964E+001	-1.7908567E-001	1.1760269E-003	1.4031893E+000	1.3325472E+000	1.000000000000000E+000	12	1.3684806E-001	1.4796408E-004	4.940275005762830E-005	0.0000000E+000	-1.0007802E+002	2.4260055E-004	1.0536608E-003	1.0812290E-003	7.7033882E+001	1.148832674427669E-007
1.1218996E+002	2.1876065E+002	1.0010328E+003	1.0246575E+003	-7.7672668E+001	5.320886658062227E+001	-1.7909434E-001	1.1672729E-003	1.4171566E+000	1.3525616E+000	1.000000000000000E+000	12	1.3679236E-001	1.3350058E-004	4.948711658740224E-005	0.0000000E+000	-1.0006197E+002	2.0835883E-004	9.5343456E-004	9.7593589E-004	7.7672668E+001	8.436652977394037E-008
1.0003201E+002	2.3066550E+002	1.1117408E+003	1.1354181E+003	-7.8278503E+001	5.396869632339804E+001	-1.7909604E-001	1.1783211E-003	1.4311250E+000	1.3720599E+000	1.000000000000000E+000	12	1.3673624E-001	1.2042810E-004	4.972804614246555E-005	0.0000000E+000	-1.0011009E+002	1.7892499E-004	8.6236664E-004	8.8073284E-004	7.8278503E+001	2.409295550633050E-007
8.9115974E+001	2.4414792E+002	1.2365470E+003	1.2604192E+003	-7.8830994E+001	5.473571745316440E+001	-1.7908798E-001	1.1900046E-003	1.4442885E+000	1.3900973E+000	1.000000000000000E+000	12	1.3670136E-001	1.0845706E-004	5.006807431211241E-005	0.0000000E+000	-1.0008604E+002	1.5368195E-004	7.7836018E-004	7.9338683E-004	7.8830994E+001	3.400281696468589E-007
7.9415527E+001	2.5853799E+002	1.3747880E+003	1.3988866E+003	-7.9349541E+001	5.549922258270090E+001	-1.7908570E-001	1.1886233E-003	1.4577364E+000	1.4079441E+000	1.000000000000000E+000	12	1.3666551E-001	9.7695920E-005	5.021708165635472E-005	0.0000000E+000	-1.0007802E+002	1.3211716E-004	7.0253940E-004	7.1485422E-004	7.9349541E+001	1.490073442423151E-007
7.0838745E+001	2.7465521E+002	1.5279215E+003	1.5524109E+003	-7.9809486E+001	5.625039979172288E+001	-1.7908642E-001	1.1875592E-003	1.4704431E+000	1.4244164E+000	1.000000000000000E+000	12	1.3663763E-001	8.8016408E-005	5.051282026146429E-005	0.0000000E+000	-1.0008604E+002	1.1396582E-004	6.3399767E-004	6.4415933E-004	7.9809486E+001	2.957386051095651E-007
6.3082302E+001	2.9208044E+002	1.7011257E+003	1.7260184E+003	-8.0257408E+001	5.703081777550688E+001	-1.7908232E-001	1.1875964E-003	1.4831197E+000	1.4406489E+000	1.000000000000000E+000	12	1.3661683E-001	7.9151432E-005	5.079185079503097E-005	0.0000000E+000	-1.0006197E+002	9.8041870E-005	5.7101244E-004	5.7936809E-004	8.0257408E+001	2.790305335666844E-007
5.6241817E+001	3.1149542E+002	1.8923676E+003	1.9178333E+003	-8.0652580E+001	5.777433663743432E+001	-1.7909312E-001	1.1805226E-003	1.4953928E+000	1.4559438E+000	1.000000000000000E+000	12	1.3659823E-001	7.1225288E-005	5.105916278471462E-005	0.0000000E+000	-1.0007802E+002	8.4689593E-005	5.1449816E-004	5.2142178E-004	8.0652580E+001	2.673119896836498E-007
5.0144413E+001	3.3286050E+002	2.1048494E+003	2.1310061E+003	-8.1013672E+001	5.853119696673821E+001	-1.7909455E-001	1.1786930E-003	1.5079139E+000	1.4711237E+000	1.000000000000000E+000	12	1.3658696E-001	6.4095060E-005	5.132042435485426E-005	0.0000000E+000	-1.0007802E+002	7.3298143E-005	4.6350205E-004	4.6926193E-004	8.1013672E+001	2.612615701396424E-007
4.4671219E+001	3.5680939E+002	2.3442773E+003	2.3712759E+003	-8.1345749E+001	5.929522596302559E+001	-1.7908856E-001	1.1775916E-003	1.5197891E+000	1.4853785E+000	1.000000000000000E+000	12	1.3657448E-001	5.7595356E-005	5.159346741699867E-005	0.0000000E+000	-1.0006999E+002	6.3455918E-005	4.1691240E-004	4.2171389E-004	8.1345749E+001	2.730430621444017E-007
3.9808922E+001	3.8391403E+002	2.6106521E+003	2.6387297E+003	-8.1634232E+001	6.005770578594093E+001	-1.7908682E-001	1.1720111E-003	1.5314072E+000	1.4989905E+000	1.000000000000000E+000	12	1.3657129E-001	5.1756451E-005	5.176767790550164E-005	0.0000000E+000	-1.0002989E+002	5.5137119E-005	3.7493778E-004	3.7897023E-004	8.1634232E+001	1.742104885029723E-007
3.5465305E+001	4.1299951E+002	2.9085442E+003	2.9377197E+003	-8.1918297E+001	6.105614332665573E+001	-1.7908965E-001	1.0059403E-003	1.5429106E+000	1.5124164E+000	1.000000000000000E+000	13	1.3682252E-001	4.6574398E-005	5.212093834264386E-005	0.0000000E+000	-1.0006999E+002	4.7855166E-005	3.3701942E-004	3.4040006E-004	8.1918297E+001	3.532604371422245E-007
3.1629551E+001	4.4633609E+002	3.2374473E+003	3.2680698E+003	-8.2150307E+001	6.178044141436112E+001	-1.7908150E-001	1.0052104E-003	1.5542626E+000	1.5252715E+000	1.000000000000000E+000	13	1.3676274E-001	4.1848169E-005	5.229130558910765E-005	0.0000000E+000	-1.0010207E+002	4.1790663E-005	3.0312379E-004	3.0599101E-004	8.2150307E+001	1.703672464637896E-007
2.8170074E+001	4.8330328E+002	3.6085037E+003	3.6407253E+003	-8.2371513E+001	6.258575939934235E+001	-1.7908664E-001	1.0143655E-003	1.5656872E+000	1.5380960E+000	1.000000000000000E+000	13	1.3671847E-001	3.7552534E-005	5.242834711231667E-005	0.0000000E+000	-1.0007802E+002	3.6462294E-005	2.7223962E-004	2.7467054E-004	8.2371513E+001	1.370415232090135E-007