EC-Lab ASCII FILE
Nb header lines : 75                          

Potentio Electrochemical Impedance Spectroscopy

Run on channel : 1 (SN 20909)
User : 
CE vs. WE compliance from -10 V to 10 V
Electrode connection : standard
Ewe ctrl range : min = -10.00 V, max = 10.00 V
Safety Limits :
	Do not start on E overload
Acquisition started on : 01/22/2020 09:39:16
Technique started on : 01/22/2020 09:39:17
Saved on :
	File : DE_49_5_30.mpr
	Directory : P:\Chemistry\Data\VMP3\Kyler\DOE\DE_49\30C\
	Host : 10.0.4.99
Device : VMP3 (SN 0183)
Address : USB
EC-Lab for windows v11.33 (software)
Internet server v11.32 (firmware)
Command interpretor v11.33 (firmware)
Electrode material : 
Initial state : 
Electrolyte : 
Comments : 
Electrode surface area : 0.001 cm²
Characteristic mass : 0.001 g
Equivalent Weight : 0.000 g/eq.
Density : 0.000 g/cm3
Record Analogic IN 1
Cycle Definition : Charge/Discharge alternance
External device configuration :
   device type : Thermostat
   device name : Other
   Analog OUT : 
      mode : E/V
      unit : T/°C
      max : 400.000 at 5.000 V
      min : -100.000 at 0.000 V
      current : 0.000
   Analog IN 1 : 
      unit : T/°C
      max : 400.000 at 5.000 V
      min : -100.000 at 0.000 V
Mode                Single sine         
E (V)               0.0000              
vs.                 Eoc                 
tE (h:m:s)          0:00:0.0000         
record              0                   
dI                  1.000               
unit dI             mA                  
dt (s)              0.000               
fi                  1.000               
unit fi             MHz                 
ff                  1.000               
unit ff             Hz                  
Nd                  20                  
Points              per decade          
spacing             Logarithmic         
Va (mV)             128.0               
pw                  0.50                
Na                  3                   
corr                0                   
E range min (V)     -10.000             
E range max (V)     10.000              
I Range             Auto                
Bandwidth           5                   
nc cycles           0                   
goto Ns'            0                   
nr cycles           0                   
inc. cycle          1                   

freq/Hz	Re(Z)/Ohm	-Im(Z)/Ohm	|Z|/Ohm	Phase(Z)/deg	time/s	<Ewe>/V	<I>/mA	Cs/µF	Cp/µF	cycle number	I Range	|Ewe|/V	|I|/A	(Q-Qo)/mA.h	Analog OUT/V	Analog IN 1/V	Re(Y)/Ohm-1	Im(Y)/Ohm-1	|Y|/Ohm-1	Phase(Y)/deg	dq/mA.h	
1.0000186E+006	2.6666172E+001	1.0526104E+002	1.0858624E+002	-7.5784126E+001	1.952481159387389E+000	-4.2625838E-003	2.9673737E-003	1.5119743E-003	1.4207909E-003	1.000000000000000E+000	11	3.1952828E-003	2.9426223E-005	6.506038223600020E-007	0.0000000E+000	-1.0008604E+002	2.2615755E-003	8.9272587E-003	9.2092706E-003	7.5784126E+001	6.506038223600020E-007
8.9124669E+005	3.3824718E+001	1.1185535E+002	1.1685774E+002	-7.3174843E+001	2.547471934318310E+000	-3.7324117E-003	3.0095526E-003	1.5964871E-003	1.4627294E-003	1.000000000000000E+000	11	5.2572913E-003	4.4988814E-005	1.237682061703607E-006	0.0000000E+000	-1.0005396E+002	2.4769614E-003	8.1910919E-003	8.5574137E-003	7.3174843E+001	5.870782393436053E-007
7.9433269E+005	4.1344482E+001	1.1983786E+002	1.2676939E+002	-7.0965385E+001	3.143473962642020E+000	-3.2798138E-003	3.0306433E-003	1.6719514E-003	1.4941111E-003	1.000000000000000E+000	11	8.3625112E-003	6.5966327E-005	1.629637232268578E-006	0.0000000E+000	-1.0008604E+002	2.5726976E-003	7.4570184E-003	7.8883395E-003	7.0965385E+001	3.919551705649712E-007
7.0794981E+005	4.9374508E+001	1.2924344E+002	1.3835356E+002	-6.9091782E+001	3.739489350904478E+000	-2.8722873E-003	3.1801355E-003	1.7394387E-003	1.5179081E-003	1.000000000000000E+000	11	1.2716934E-002	9.1916205E-005	2.071054619549007E-006	0.0000000E+000	-1.0003791E+002	2.5794203E-003	6.7519280E-003	7.2278585E-003	6.9091782E+001	4.414173872804287E-007
6.3095681E+005	5.8075218E+001	1.3988933E+002	1.5146536E+002	-6.7454163E+001	4.335480419249507E+000	-2.4764901E-003	3.1321726E-003	1.8031669E-003	1.5380783E-003	1.000000000000000E+000	11	1.8425658E-002	1.2164933E-004	2.705003996960942E-006	0.0000000E+000	-1.0009406E+002	2.5314197E-003	6.0975859E-003	6.6021695E-003	6.7454163E+001	6.339493774119344E-007
5.6234225E+005	6.7581215E+001	1.5145068E+002	1.6584489E+002	-6.5952332E+001	4.930471647501690E+000	-2.1389297E-003	3.2322083E-003	1.8687369E-003	1.5584270E-003	1.000000000000000E+000	11	2.5449401E-002	1.5345303E-004	2.924923544539423E-006	0.0000000E+000	-1.0012614E+002	2.4570941E-003	5.5063902E-003	6.0297302E-003	6.5952332E+001	2.199195475784817E-007
5.0120619E+005	7.8192162E+001	1.6374976E+002	1.8146072E+002	-6.4475052E+001	5.527490795851918E+000	-1.8315783E-003	3.3262719E-003	1.9392021E-003	1.5791345E-003	1.000000000000000E+000	11	3.3674859E-002	1.8557657E-004	3.716660596495987E-006	0.0000000E+000	-1.0004594E+002	2.3746409E-003	4.9729645E-003	5.5108345E-003	6.4475052E+001	7.917370519565643E-007
4.4668572E+005	9.0099930E+001	1.7657948E+002	1.9823802E+002	-6.2966988E+001	6.123484877491137E+000	-1.5935593E-003	3.3217934E-003	2.0177986E-003	1.6009744E-003	1.000000000000000E+000	11	4.2935591E-002	2.1658605E-004	3.855993453712371E-006	0.0000000E+000	-1.0006197E+002	2.2927178E-003	4.4933097E-003	5.0444412E-003	6.2966988E+001	1.393328572163832E-007
3.9810347E+005	1.0349470E+002	1.8959134E+002	2.1600006E+002	-6.1370621E+001	6.718481652409537E+000	-1.4387834E-003	3.2501281E-003	2.1086556E-003	1.6245570E-003	1.000000000000000E+000	11	5.3142499E-002	2.4603002E-004	4.671678216826372E-006	0.0000000E+000	-1.0006999E+002	2.2182493E-003	4.0635979E-003	4.6296283E-003	6.1370621E+001	8.156847631140009E-007
3.5480997E+005	1.1830370E+002	2.0307829E+002	2.3502460E+002	-5.9776970E+001	7.313482320663752E+000	-1.3440154E-003	3.2641247E-003	2.2088226E-003	1.6491539E-003	1.000000000000000E+000	11	6.4315245E-002	2.7365325E-004	5.604528225518556E-006	0.0000000E+000	-1.0010207E+002	2.1417644E-003	3.6765197E-003	4.2548738E-003	5.9776970E+001	9.328500086921842E-007
3.1622997E+005	1.3474313E+002	2.1617865E+002	2.5473303E+002	-5.8064907E+001	7.908492508955533E+000	-1.2307490E-003	3.3514691E-003	2.3281144E-003	1.6767154E-003	1.000000000000000E+000	11	7.6490551E-002	3.0027732E-004	6.321055089564955E-006	0.0000000E+000	-1.0006197E+002	2.0765199E-003	3.3315185E-003	3.9256783E-003	5.8064907E+001	7.165268640463995E-007
2.8183453E+005	1.5281482E+002	2.2906219E+002	2.7535770E+002	-5.6291462E+001	8.504493043903494E+000	-1.2072714E-003	3.2801772E-003	2.4653156E-003	1.7060230E-003	1.000000000000000E+000	11	8.9709520E-002	3.2579267E-004	6.912973212430694E-006	0.0000000E+000	-1.0006999E+002	2.0154454E-003	3.0210575E-003	3.6316400E-003	5.6291462E+001	5.919181228657385E-007
2.5118764E+005	1.7222316E+002	2.4118367E+002	2.9636191E+002	-5.4470329E+001	9.099481205485063E+000	-1.1974624E-003	3.2441586E-003	2.6270840E-003	1.7399029E-003	1.000000000000000E+000	11	1.0398093E-001	3.5085794E-004	7.418470863786448E-006	0.0000000E+000	-1.0009406E+002	1.9608608E-003	2.7460165E-003	3.3742527E-003	5.4470329E+001	5.054976513557544E-007
2.2387173E+005	1.9306055E+002	2.5261182E+002	3.1793884E+002	-5.2610847E+001	9.559487654041732E+000	-1.1539200E-003	3.3279567E-003	2.8142794E-003	1.7765905E-003	1.000000000000000E+000	11	1.1935681E-001	3.7540807E-004	7.540558821282402E-006	0.0000000E+000	-1.0009406E+002	1.9098811E-003	2.4990013E-003	3.1452589E-003	5.2610847E+001	1.220879574959534E-007
1.9954350E+005	2.1507732E+002	2.6314749E+002	3.3986005E+002	-5.0739971E+001	1.001947714251583E+001	-1.1056401E-003	3.2902572E-003	3.0309819E-003	1.8171115E-003	1.000000000000000E+000	11	1.3587858E-001	3.9980744E-004	8.136855317937766E-006	0.0000000E+000	-1.0006999E+002	1.8620632E-003	2.2782376E-003	2.9423877E-003	5.0739971E+001	5.962964966553643E-007
1.7783180E+005	2.3811958E+002	2.7289935E+002	3.6218088E+002	-4.8893528E+001	1.061548541087541E+001	-1.0203086E-003	3.3023877E-003	3.2795044E-003	1.8619250E-003	1.000000000000000E+000	11	1.2955892E-001	3.5771882E-004	8.142313101262617E-006	0.0000000E+000	-1.0006999E+002	1.8152818E-003	2.0804221E-003	2.7610513E-003	4.8893528E+001	5.457783324850743E-009
1.5848613E+005	2.6203146E+002	2.8155972E+002	3.8462497E+002	-4.7057438E+001	1.121149149248959E+001	-9.4959652E-004	3.2734589E-003	3.5666323E-003	1.9112807E-003	1.000000000000000E+000	11	1.3005821E-001	3.3814294E-004	9.369290877487705E-006	0.0000000E+000	-1.0009406E+002	1.7712446E-003	1.9032488E-003	2.5999353E-003	4.7057438E+001	1.226977776225088E-006
1.4125594E+005	2.8661517E+002	2.8923334E+002	4.0719058E+002	-4.5260502E+001	1.180849309419864E+001	-8.8942057E-004	3.3201156E-003	3.8955167E-003	1.9654694E-003	1.000000000000000E+000	11	1.2963279E-001	3.1835900E-004	1.018669085713595E-005	0.0000000E+000	-1.0011009E+002	1.7286366E-003	1.7444274E-003	2.4558525E-003	4.5260502E+001	8.173999796482445E-007
1.2590930E+005	3.1178391E+002	2.9590219E+002	4.2984567E+002	-4.3502930E+001	1.240549330922659E+001	-8.6765870E-004	3.3173147E-003	4.2718318E-003	2.0243491E-003	1.000000000000000E+000	11	1.2968153E-001	3.0169322E-004	1.095050073206504E-005	0.0000000E+000	-1.0003791E+002	1.6874409E-003	1.6014857E-003	2.3264163E-003	4.3502930E+001	7.638098749290904E-007
1.1220494E+005	3.3728180E+002	3.0145328E+002	4.5236389E+002	-4.1789474E+001	1.300147720417590E+001	-8.3851244E-004	3.2320241E-003	4.7053089E-003	2.0895477E-003	1.000000000000000E+000	11	1.2966116E-001	2.8663021E-004	1.122918654403636E-005	0.0000000E+000	-1.0006197E+002	1.6482271E-003	1.4731403E-003	2.2106096E-003	4.1789474E+001	2.786858119713230E-007
1.0000371E+005	3.6285312E+002	3.0596655E+002	4.7463449E+002	-4.0138397E+001	1.359747461913503E+001	-8.0600946E-004	3.3402697E-003	5.2015171E-003	2.1615205E-003	1.000000000000000E+000	11	1.2960798E-001	2.7306902E-004	1.165991166717302E-005	0.0000000E+000	-1.0007802E+002	1.6106912E-003	1.3581738E-003	2.1068845E-003	4.0138397E+001	4.307251231366549E-007
8.9129305E+004	3.8862033E+002	3.0966031E+002	4.9690570E+002	-3.8548527E+001	1.419349686076748E+001	-7.9250854E-004	3.3348585E-003	5.7665235E-003	2.2394285E-003	1.000000000000000E+000	11	1.2938879E-001	2.6038903E-004	1.260732333152878E-005	0.0000000E+000	-1.0006999E+002	1.5739015E-003	1.2541157E-003	2.0124542E-003	3.8548527E+001	9.474116643557661E-007
7.9433273E+004	4.2210400E+002	3.0870120E+002	5.2294189E+002	-3.6179466E+001	1.495547212366364E+001	-9.7268319E-004	1.1207458E-003	6.4905179E-003	2.2617737E-003	1.000000000000000E+000	12	1.2157234E-001	2.3247772E-004	1.263254973644345E-005	0.0000000E+000	-1.0009406E+002	1.5435212E-003	1.1288375E-003	1.9122583E-003	3.6179466E+001	2.522640491467006E-008
7.0794977E+004	4.4709821E+002	3.1083908E+002	5.4453442E+002	-3.4808445E+001	1.541547657214687E+001	-9.7805250E-004	1.1307694E-003	7.2323936E-003	2.3566908E-003	1.000000000000000E+000	12	1.3980706E-001	2.5674605E-004	1.262363113847176E-005	0.0000000E+000	-1.0011009E+002	1.5078295E-003	1.0482984E-003	1.8364312E-003	3.4808445E+001	-8.918597971689564E-009
6.3093828E+004	4.7202283E+002	3.1271817E+002	5.6621393E+002	-3.3524731E+001	1.601148401378305E+001	-9.2596991E-004	1.1095662E-003	8.0664074E-003	2.4605107E-003	1.000000000000000E+000	12	1.3130613E-001	2.3190198E-004	1.295892431063759E-005	0.0000000E+000	-1.0005396E+002	1.4723190E-003	9.7542087E-004	1.7661169E-003	3.3524731E+001	3.352931721658222E-007
5.6237012E+004	4.9671057E+002	3.1419827E+002	5.8774310E+002	-3.2315727E+001	1.660647438871092E+001	-8.8412460E-004	1.1293871E-003	9.0072891E-003	2.5741071E-003	1.000000000000000E+000	12	1.3013652E-001	2.2141734E-004	1.307725062921559E-005	0.0000000E+000	-1.0013416E+002	1.4378988E-003	9.0955448E-004	1.7014237E-003	3.2315727E+001	1.183263185780053E-007
5.0122477E+004	5.2133624E+002	3.1534329E+002	6.0928882E+002	-3.1168697E+001	1.720248679039651E+001	-8.6312741E-004	1.1258967E-003	1.0069409E-002	2.6972722E-003	1.000000000000000E+000	12	1.3000646E-001	2.1337411E-004	1.325219453587811E-005	0.0000000E+000	-1.0005396E+002	1.4043376E-003	8.4944873E-004	1.6412578E-003	3.1168697E+001	1.749439066625200E-007
4.4666715E+004	5.4577173E+002	3.1617624E+002	6.3074097E+002	-3.0084551E+001	1.779849028537865E+001	-8.3963125E-004	1.1346502E-003	1.1269557E-002	2.8318046E-003	1.000000000000000E+000	12	1.2990566E-001	2.0595721E-004	1.326409257333823E-005	0.0000000E+000	-1.0008604E+002	1.3718572E-003	7.9474371E-004	1.5854369E-003	3.0084551E+001	1.189803746011531E-008
3.9814063E+004	5.7008484E+002	3.1688962E+002	6.5223901E+002	-2.9068108E+001	1.839448922031443E+001	-8.2148716E-004	1.1283789E-003	1.2614663E-002	2.9776806E-003	1.000000000000000E+000	12	1.2959367E-001	1.9869047E-004	1.338523291071114E-005	0.0000000E+000	-1.0010207E+002	1.3400652E-003	7.4489397E-004	1.5331802E-003	2.9068108E+001	1.211403373729102E-007
3.5480996E+004	5.9441412E+002	3.1746454E+002	6.7387823E+002	-2.8105770E+001	1.898949498191359E+001	-8.1604195E-004	1.1314024E-003	1.4129575E-002	3.1358602E-003	1.000000000000000E+000	12	1.2956741E-001	1.9227125E-004	1.399579550822899E-005	0.0000000E+000	-1.0011009E+002	1.3089597E-003	6.9908879E-004	1.4839476E-003	2.8105770E+001	6.105625975178559E-007
3.1621143E+004	6.1872247E+002	3.1782468E+002	6.9557892E+002	-2.7188608E+001	1.958548039689776E+001	-8.0345484E-004	1.1416115E-003	1.5836345E-002	3.3062627E-003	1.000000000000000E+000	12	1.2938377E-001	1.8600877E-004	1.389719934495224E-005	0.0000000E+000	-1.0008604E+002	1.2788012E-003	6.5689319E-004	1.4376513E-003	2.7188608E+001	-9.859616327675102E-008
2.8188096E+004	6.4288593E+002	3.1795554E+002	7.1721545E+002	-2.6315865E+001	2.004547503209324E+001	-8.0067577E-004	1.1328208E-003	1.7757751E-002	3.4899684E-003	1.000000000000000E+000	12	1.3963839E-001	1.9469518E-004	1.392229713946047E-005	0.0000000E+000	-1.0010207E+002	1.2497831E-003	6.1811187E-004	1.3942812E-003	2.6315865E+001	2.509779450823186E-008
2.5116910E+004	6.6724554E+002	3.1818707E+002	7.3922906E+002	-2.5494913E+001	2.064148143373313E+001	-7.8579539E-004	1.1350602E-003	1.9914590E-002	3.6895922E-003	1.000000000000000E+000	12	1.3006142E-001	1.7594197E-004	1.396745735687808E-005	0.0000000E+000	-1.0003791E+002	1.2210336E-003	5.8227009E-004	1.3527607E-003	2.5494913E+001	4.516021741761097E-008
2.2389027E+004	6.9145740E+002	3.1794839E+002	7.6105487E+002	-2.4694084E+001	2.110047996221692E+001	-7.7885820E-004	1.1452506E-003	2.2357758E-002	3.9022008E-003	1.000000000000000E+000	12	1.3718861E-001	1.8026114E-004	1.401749329204742E-005	0.0000000E+000	-1.0007802E+002	1.1938052E-003	5.4893974E-004	1.3139657E-003	2.4694084E+001	5.003593516933794E-008
1.9948783E+004	7.1596948E+002	3.1775641E+002	7.8331439E+002	-2.3932259E+001	2.169647983051254E+001	-7.7662081E-004	1.1270718E-003	2.5107844E-002	4.1316720E-003	1.000000000000000E+000	12	1.2952083E-001	1.6534975E-004	1.384766554835490E-005	0.0000000E+000	-1.0009406E+002	1.1668695E-003	5.1787158E-004	1.2766266E-003	2.3932259E+001	-1.698277436925206E-007
1.7786895E+004	7.4019385E+002	3.1705420E+002	8.0523926E+002	-2.3187359E+001	2.215649646570091E+001	-7.7290973E-004	1.1485540E-003	2.8221915E-002	4.3752575E-003	1.000000000000000E+000	12	1.3390106E-001	1.6628730E-004	1.393357687788264E-005	0.0000000E+000	-1.0008604E+002	1.1415518E-003	4.8897159E-004	1.2418670E-003	2.3187359E+001	8.591132952773817E-008
1.5847686E+004	7.6462567E+002	3.1624072E+002	8.2744220E+002	-2.2469448E+001	2.261547790080658E+001	-7.7372999E-004	1.1526601E-003	3.1756781E-002	4.6387049E-003	1.000000000000000E+000	12	1.3737047E-001	1.6601820E-004	1.397314979863101E-005	0.0000000E+000	-1.0010207E+002	1.1167952E-003	4.6189420E-004	1.2085437E-003	2.2469448E+001	3.957292074836847E-008
1.4121879E+004	7.8886804E+002	3.1501764E+002	8.4944037E+002	-2.1768244E+001	2.307447882930865E+001	-7.8275532E-004	1.1439442E-003	3.5776082E-002	4.9203583E-003	1.000000000000000E+000	12	1.3999161E-001	1.6480451E-004	1.421178229647477E-005	0.0000000E+000	-1.0011009E+002	1.0932981E-003	4.3658528E-004	1.1772456E-003	2.1768244E+001	2.386324978437593E-007
1.2590932E+004	8.1344409E+002	3.1391064E+002	8.7191235E+002	-2.1101761E+001	2.367047523093061E+001	-7.6280290E-004	1.1491509E-003	4.0267646E-002	5.2194251E-003	1.000000000000000E+000	12	1.2940989E-001	1.4842076E-004	1.413504447322521E-005	0.0000000E+000	-1.0003791E+002	1.0699957E-003	4.1291479E-004	1.1469043E-003	2.1101761E+001	-7.673782324956145E-008
1.1217711E+004	8.3775397E+002	3.1215271E+002	8.9401959E+002	-2.0435730E+001	2.412949591942015E+001	-7.5584726E-004	1.1776878E-003	4.5451559E-002	5.5410103E-003	1.000000000000000E+000	12	1.3065699E-001	1.4614555E-004	1.431221272166699E-005	0.0000000E+000	-1.0010207E+002	1.0481474E-003	3.9054677E-004	1.1185437E-003	2.0435730E+001	1.771682484417800E-007
1.0002229E+004	8.6172626E+002	3.1012296E+002	9.1583209E+002	-1.9793079E+001	2.458947930127033E+001	-7.6819194E-004	1.1503077E-003	5.1308509E-002	5.8833612E-003	1.000000000000000E+000	12	1.3149558E-001	1.4358044E-004	1.456043853547696E-005	0.0000000E+000	-1.0009406E+002	1.0273954E-003	3.6974493E-004	1.0919032E-003	1.9793079E+001	2.482258138099710E-007
8.9149297E+003	8.8562317E+002	3.0760077E+002	9.3752155E+002	-1.9153492E+001	2.507190673751757E+001	-7.3167984E-004	1.1771277E-003	5.8038313E-002	6.2477998E-003	1.000000000000000E+000	12	1.3205771E-001	1.4085832E-004	1.469365394836697E-005	0.0000000E+000	-1.0009406E+002	1.0075960E-003	3.4996524E-004	1.0666421E-003	1.9153492E+001	1.332154128900168E-007
7.9439976E+003	9.0941089E+002	3.0463202E+002	9.5907709E+002	-1.8519680E+001	2.559800276250462E+001	-7.2289672E-004	1.2084830E-003	6.5766618E-002	6.6351318E-003	1.000000000000000E+000	12	1.3239801E-001	1.3804731E-004	1.494285056354420E-005	0.0000000E+000	-1.0005396E+002	9.8867400E-004	3.3118337E-004	1.0426691E-003	1.8519680E+001	2.491966151772241E-007
7.0822334E+003	9.3248767E+002	3.0139398E+002	9.7998547E+002	-1.7911610E+001	2.617487396323122E+001	-7.1055192E-004	1.1995242E-003	7.4561618E-002	7.0525343E-003	1.000000000000000E+000	12	1.3258035E-001	1.3528808E-004	1.518213532290166E-005	0.0000000E+000	-1.0009406E+002	9.7096548E-004	3.1383059E-004	1.0204233E-003	1.7911610E+001	2.392847593574605E-007
6.3077344E+003	9.5560590E+002	2.9777762E+002	1.0009266E+003	-1.7307627E+001	2.680953335334198E+001	-7.0605782E-004	1.2084638E-003	8.4733404E-002	7.4995342E-003	1.000000000000000E+000	12	1.3266516E-001	1.3254234E-004	1.530070471225271E-005	0.0000000E+000	-1.0012614E+002	9.5383730E-004	2.9722654E-004	9.9907420E-004	1.7307627E+001	1.185693893510484E-007
5.6210552E+003	9.7814368E+002	2.9391849E+002	1.0213487E+003	-1.6724787E+001	2.751027789330692E+001	-6.9688313E-004	1.2133537E-003	9.6333057E-002	7.9777623E-003	1.000000000000000E+000	12	1.3266957E-001	1.2989645E-004	1.561014023928793E-005	0.0000000E+000	-1.0010207E+002	9.3767984E-004	2.8175965E-004	9.7909756E-004	1.6724787E+001	3.094355270352228E-007
5.0116035E+003	9.9996759E+002	2.8953012E+002	1.0410393E+003	-1.6147820E+001	2.827069667613978E+001	-6.8397901E-004	1.2392962E-003	1.0968561E-001	8.4840441E-003	1.000000000000000E+000	12	1.3262436E-001	1.2739611E-004	1.589021716133882E-005	0.0000000E+000	-1.0009406E+002	9.2268118E-004	2.6715267E-004	9.6057850E-004	1.6147820E+001	2.800769220508931E-007
4.4664292E+003	1.0212267E+003	2.8512692E+002	1.0602836E+003	-1.5599756E+001	2.903068511223682E+001	-6.8854768E-004	1.1882316E-003	1.2497451E-001	9.0376148E-003	1.000000000000000E+000	12	1.3255478E-001	1.2501824E-004	1.617028284667807E-005	0.0000000E+000	-1.0008604E+002	9.0840197E-004	2.5362623E-004	9.4314391E-004	1.5599756E+001	2.800656853392452E-007
3.9812742E+003	1.0417878E+003	2.8049188E+002	1.0788872E+003	-1.5069028E+001	2.979066677500668E+001	-6.8929361E-004	1.2019306E-003	1.4252062E-001	9.6331043E-003	1.000000000000000E+000	12	1.3246694E-001	1.2278109E-004	1.633672598621827E-005	0.0000000E+000	-1.0007802E+002	8.9500856E-004	2.4097289E-004	9.2688092E-004	1.5069028E+001	1.664431395402043E-007
3.5465955E+003	1.0617943E+003	2.7576071E+002	1.0970192E+003	-1.4558758E+001	3.055094649110106E+001	-6.8610482E-004	1.2112255E-003	1.6273317E-001	1.0282825E-002	1.000000000000000E+000	12	1.3237756E-001	1.2067024E-004	1.656169773804140E-005	0.0000000E+000	-1.0004594E+002	8.8229124E-004	2.2914160E-004	9.1156113E-004	1.4558758E+001	2.249717518231298E-007
3.1610112E+003	1.0804553E+003	2.7112592E+002	1.1139537E+003	-1.4086746E+001	3.131066532719706E+001	-6.8554544E-004	1.2076793E-003	1.8570478E-001	1.1000966E-002	1.000000000000000E+000	12	1.3228339E-001	1.1875125E-004	1.677210017629437E-005	0.0000000E+000	-1.0012614E+002	8.7070791E-004	2.1849260E-004	8.9770334E-004	1.4086746E+001	2.104024382529658E-007
2.8172952E+003	1.0984226E+003	2.6640686E+002	1.1302676E+003	-1.3633035E+001	3.207096506995731E+001	-6.8541494E-004	1.1954918E-003	2.1205199E-001	1.1780688E-002	1.000000000000000E+000	12	1.3219748E-001	1.1696122E-004	1.692769065221728E-005	0.0000000E+000	-1.0006197E+002	8.5981877E-004	2.0853688E-004	8.8474626E-004	1.3633035E+001	1.555904759229120E-007
2.5108032E+003	1.1153074E+003	2.6210739E+002	1.1456923E+003	-1.3225047E+001	3.283068163939606E+001	-6.8319583E-004	1.2021362E-003	2.4184002E-001	1.2657583E-002	1.000000000000000E+000	12	1.3211566E-001	1.1531514E-004	1.714672891226170E-005	0.0000000E+000	-1.0006999E+002	8.4968627E-004	1.9968404E-004	8.7283476E-004	1.3225047E+001	2.190382600444237E-007
2.2378516E+003	1.1311223E+003	2.5822751E+002	1.1602238E+003	-1.2859849E+001	3.359095386214904E+001	-6.8362476E-004	1.2189524E-003	2.7541423E-001	1.3642937E-002	1.000000000000000E+000	12	1.3204102E-001	1.1380651E-004	1.749973790822959E-005	0.0000000E+000	-1.0006197E+002	8.4028399E-004	1.9183109E-004	8.6190272E-004	1.2859849E+001	3.530089959678855E-007
1.9956389E+003	1.1458898E+003	2.5494716E+002	1.1739086E+003	-1.2543340E+001	3.435066872492462E+001	-6.8246858E-004	1.1990379E-003	3.1281531E-001	1.4754341E-002	1.000000000000000E+000	12	1.3197152E-001	1.1242061E-004	1.766287458624518E-005	0.0000000E+000	-1.0003791E+002	8.3152304E-004	1.8500422E-004	8.5185509E-004	1.2543340E+001	1.631366780155867E-007
1.7782927E+003	1.1596754E+003	2.5261095E+002	1.1868695E+003	-1.2288719E+001	3.511094297433738E+001	-6.8798830E-004	1.2022480E-003	3.5429472E-001	1.6049558E-002	1.000000000000000E+000	12	1.3191029E-001	1.1114137E-004	1.797730330423494E-005	0.0000000E+000	-1.0010207E+002	8.2324765E-004	1.7932722E-004	8.4255263E-004	1.2288719E+001	3.144287179897629E-007
1.5855076E+003	1.1725203E+003	2.5126717E+002	1.1991409E+003	-1.2095357E+001	3.587070722378849E+001	-6.8465038E-004	1.2161153E-003	3.9949933E-001	1.7540708E-002	1.000000000000000E+000	12	1.3185444E-001	1.0995742E-004	1.830307288117688E-005	0.0000000E+000	-1.0006197E+002	8.1541733E-004	1.7474122E-004	8.3393039E-004	1.2095357E+001	3.257695769419414E-007
1.4118373E+003	1.1849164E+003	2.5118489E+002	1.2112476E+003	-1.1968682E+001	3.663221475327737E+001	-6.9199759E-004	1.2109827E-003	4.4878876E-001	1.9300262E-002	1.000000000000000E+000	12	1.3181520E-001	1.0882597E-004	1.862169358728311E-005	0.0000000E+000	-1.0006197E+002	8.0764754E-004	1.7120944E-004	8.2559505E-004	1.1968682E+001	3.186207061062333E-007
1.2587914E+003	1.1962544E+003	2.5256564E+002	1.2226259E+003	-1.1921796E+001	3.739196140269632E+001	-6.9046841E-004	1.2258952E-003	5.0060141E-001	2.1362569E-002	1.000000000000000E+000	12	1.3177097E-001	1.0777701E-004	1.895042831869028E-005	0.0000000E+000	-1.0009406E+002	8.0026971E-004	1.6896125E-004	8.1791170E-004	1.1921796E+001	3.287347314071652E-007
1.1217948E+003	1.2068040E+003	2.5543307E+002	1.2335404E+003	-1.1950886E+001	3.815044527870486E+001	-6.8437058E-004	1.2208745E-003	5.5543029E-001	2.3816451E-002	1.000000000000000E+000	12	1.3173147E-001	1.0679136E-004	1.916704902240902E-005	0.0000000E+000	-1.0004594E+002	7.9310371E-004	1.6786896E-004	8.1067468E-004	1.1950886E+001	2.166207037187422E-007
1.0003201E+003	1.2169954E+003	2.6013766E+002	1.2444875E+003	-1.2065628E+001	3.890967811480368E+001	-6.8593700E-004	1.2027519E-003	6.1161470E-001	2.6724111E-002	1.000000000000000E+000	12	1.3170472E-001	1.0583048E-004	1.950392629971207E-005	0.0000000E+000	-1.0004594E+002	7.8579236E-004	1.6796628E-004	8.0354360E-004	1.2065628E+001	3.368772773030495E-007
8.9142657E+002	1.2267020E+003	2.6694937E+002	1.2554122E+003	-1.2277038E+001	3.966842121744412E+001	-6.8302808E-004	1.1949504E-003	6.6881448E-001	3.0240623E-002	1.000000000000000E+000	12	1.3167976E-001	1.0488965E-004	1.982748018027309E-005	0.0000000E+000	-1.0008604E+002	7.7833468E-004	1.6937767E-004	7.9655112E-004	1.2277038E+001	3.235538805610214E-007
7.9423773E+002	1.2360649E+003	2.7543091E+002	1.2663801E+003	-1.2561924E+001	4.042794677356142E+001	-6.9046847E-004	1.1921135E-003	7.2754014E-001	3.4415502E-002	1.000000000000000E+000	12	1.3165866E-001	1.0396456E-004	2.000894035658712E-005	0.0000000E+000	-1.0008604E+002	7.7074923E-004	1.7174514E-004	7.8965229E-004	1.2561924E+001	1.814601763140267E-007
7.0750946E+002	1.2452219E+003	2.8659796E+002	1.2777777E+003	-1.2961370E+001	4.119047312976909E+001	-6.8983441E-004	1.2159286E-003	7.8490084E-001	3.9486658E-002	1.000000000000000E+000	12	1.3163126E-001	1.0301577E-004	2.036262174356590E-005	0.0000000E+000	-1.0006197E+002	7.6266908E-004	1.7553449E-004	7.8260875E-004	1.2961370E+001	3.536813869787802E-007
6.3100964E+002	1.2541644E+003	3.0012943E+002	1.2895759E+003	-1.3458145E+001	4.194844996577012E+001	-6.8716781E-004	1.2046369E-003	8.4037971E-001	4.5519646E-002	1.000000000000000E+000	12	1.3161795E-001	1.0206297E-004	2.069482402446536E-005	0.0000000E+000	-1.0007802E+002	7.5415504E-004	1.8047405E-004	7.7544875E-004	1.3458145E+001	3.322022808994615E-007
5.6233929E+002	1.2636617E+003	3.1639536E+002	1.3026692E+003	-1.4056722E+001	4.270490984170465E+001	-6.8231946E-004	1.2006056E-003	8.9452320E-001	5.2769564E-002	1.000000000000000E+000	12	1.3159949E-001	1.0102295E-004	2.097180464067853E-005	0.0000000E+000	-1.0010207E+002	7.4466778E-004	1.8644976E-004	7.6765462E-004	1.4056722E+001	2.769806162131720E-007
5.0144415E+002	1.2735267E+003	3.3553467E+002	1.3169867E+003	-1.4760225E+001	4.346217097100453E+001	-6.8243133E-004	1.2260817E-003	9.4593251E-001	6.1400540E-002	1.000000000000000E+000	12	1.3158822E-001	9.9916135E-005	2.126606896289013E-005	0.0000000E+000	-1.0011009E+002	7.3425227E-004	1.9345262E-004	7.5930910E-004	1.4760225E+001	2.942643222115971E-007
4.4685895E+002	1.2834340E+003	3.5774838E+002	1.3323613E+003	-1.5575445E+001	4.421893412695499E+001	-6.8293477E-004	1.2045436E-003	9.9557048E-001	7.1776673E-002	1.000000000000000E+000	12	1.3157055E-001	9.8749901E-005	2.149354587609802E-005	0.0000000E+000	-1.0010207E+002	7.2298537E-004	2.0152717E-004	7.5054716E-004	1.5575445E+001	2.274769132078927E-007
3.9808920E+002	1.2943920E+003	3.8333313E+002	1.3499611E+003	-1.6496613E+001	4.498173789653811E+001	-6.8271102E-004	1.2168245E-003	1.0429497E+000	8.4095664E-002	1.000000000000000E+000	12	1.3156387E-001	9.7457531E-005	2.169436391749898E-005	0.0000000E+000	-1.0004594E+002	7.1026979E-004	2.1034581E-004	7.4076210E-004	1.6496613E+001	2.008180414009570E-007
3.5465955E+002	1.3062048E+003	4.1265576E+002	1.3698379E+003	-1.7532349E+001	4.574195091929869E+001	-6.8258046E-004	1.2008294E-003	1.0874783E+000	9.8686568E-002	1.000000000000000E+000	12	1.3155562E-001	9.6037365E-005	2.197219460326839E-005	0.0000000E+000	-1.0005396E+002	6.9610210E-004	2.1991231E-004	7.3001342E-004	1.7532349E+001	2.778306857694087E-007
3.1631586E+002	1.3186815E+003	4.4540518E+002	1.3918717E+003	-1.8663197E+001	4.649889927526237E+001	-6.7741505E-004	1.2228901E-003	1.1296500E+000	1.1567940E-001	1.000000000000000E+000	12	1.3153811E-001	9.4504481E-005	2.218073272516833E-005	0.0000000E+000	-1.0011009E+002	6.8067771E-004	2.2990948E-004	7.1845704E-004	1.8663197E+001	2.085381218999406E-007
2.8189429E+002	1.3325061E+003	4.8224008E+002	1.4170844E+003	-1.9895422E+001	4.725442605777062E+001	-6.8789499E-004	1.2228342E-003	1.1707672E+000	1.3558316E-001	1.000000000000000E+000	12	1.3153319E-001	9.2819588E-005	2.250880737398226E-005	0.0000000E+000	-1.0006999E+002	6.6355633E-004	2.4014407E-004	7.0567429E-004	1.9895422E+001	3.280746488139324E-007
2.5104436E+002	1.3480176E+003	5.2372461E+002	1.4461808E+003	-2.1231878E+001	4.801093657372985E+001	-6.8092084E-004	1.1973393E-003	1.2105052E+000	1.5875502E-001	1.000000000000000E+000	12	1.3152410E-001	9.0945825E-005	2.282272829749236E-005	0.0000000E+000	-1.0007802E+002	6.4454071E-004	2.5041352E-004	6.9147645E-004	2.1231878E+001	3.139209235101038E-007
2.2392513E+002	1.3649000E+003	5.6940735E+002	1.4789106E+003	-2.2644863E+001	4.877369439665199E+001	-6.8535900E-004	1.2053087E-003	1.2482290E+000	1.8503612E-001	1.000000000000000E+000	12	1.3151845E-001	8.8929279E-005	2.312254292993958E-005	0.0000000E+000	-1.0006197E+002	6.2404649E-004	2.6033897E-004	6.7617337E-004	2.2644863E+001	2.998146324472146E-007
1.9955299E+002	1.3842794E+003	6.2099506E+002	1.5171896E+003	-2.4161257E+001	4.953421904603601E+001	-6.8506063E-004	1.2065404E-003	1.2843214E+000	2.1516435E-001	1.000000000000000E+000	12	1.3150448E-001	8.6676366E-005	2.330571576088884E-005	0.0000000E+000	-1.0006197E+002	6.0137315E-004	2.6977918E-004	6.5911340E-004	2.4161257E+001	1.831728309492606E-007
1.7778128E+002	1.4056877E+003	6.7762231E+002	1.5604904E+003	-2.5736740E+001	5.030226750919246E+001	-6.7659456E-004	1.2142487E-003	1.3211325E+000	2.4911486E-001	1.000000000000000E+000	12	1.3149233E-001	8.4263469E-005	2.353693272440362E-005	0.0000000E+000	-1.0009406E+002	5.7725364E-004	2.7826946E-004	6.4082420E-004	2.5736740E+001	2.312169635147760E-007
1.5842838E+002	1.4305084E+003	7.4039136E+002	1.6107556E+003	-2.7364826E+001	5.106872159898921E+001	-6.8121922E-004	1.2088361E-003	1.3568313E+000	2.8667459E-001	1.000000000000000E+000	12	1.3148171E-001	8.1627346E-005	2.381259676859524E-005	0.0000000E+000	-1.0003791E+002	5.5135472E-004	2.8536585E-004	6.2082661E-004	2.7364826E+001	2.756640441916228E-007
1.4131134E+002	1.4580637E+003	8.0849811E+002	1.6672190E+003	-2.9008421E+001	5.182190115473350E+001	-6.8274827E-004	1.2064282E-003	1.3930417E+000	3.2759467E-001	1.000000000000000E+000	12	1.3147330E-001	7.8857847E-005	2.407304879916865E-005	0.0000000E+000	-1.0008604E+002	5.2455527E-004	2.9086650E-004	5.9980125E-004	2.9008421E+001	2.604520305734076E-007
1.2584569E+002	1.4896370E+003	8.8516296E+002	1.7327815E+003	-3.0719370E+001	5.257739319061511E+001	-6.8466907E-004	1.1955284E-003	1.4287575E+000	3.7283564E-001	1.000000000000000E+000	12	1.3146430E-001	7.5868942E-005	2.430336753096364E-005	0.0000000E+000	-1.0006197E+002	4.9612694E-004	2.9480553E-004	5.7710678E-004	3.0719370E+001	2.303187317949985E-007
1.1218996E+002	1.5251785E+003	9.6771887E+002	1.8062805E+003	-3.2394943E+001	5.332282810604374E+001	-6.7937310E-004	1.1892574E-003	1.4659426E+000	4.2077020E-001	1.000000000000000E+000	12	1.3145930E-001	7.2779003E-005	2.450996464073463E-005	0.0000000E+000	-1.0006999E+002	4.6746628E-004	2.9660526E-004	5.5362389E-004	3.2394943E+001	2.065971097709815E-007
1.0003201E+002	1.5658000E+003	1.0582891E+003	1.8898956E+003	-3.4053879E+001	5.408271078214602E+001	-6.7782530E-004	1.2111125E-003	1.5034080E+000	4.7142196E-001	1.000000000000000E+000	12	1.3144608E-001	6.9552028E-005	2.472072519592833E-005	0.0000000E+000	-1.0005396E+002	4.3839001E-004	2.9629798E-004	5.2912976E-004	3.4053879E+001	2.107605551937036E-007
8.9115974E+001	1.6126382E+003	1.1575353E+003	1.9850668E+003	-3.5670399E+001	5.484972465857572E+001	-6.8088359E-004	1.2054200E-003	1.5428735E+000	5.2462447E-001	1.000000000000000E+000	12	1.3144080E-001	6.6214801E-005	2.496457919538292E-005	0.0000000E+000	-1.0006197E+002	4.0924817E-004	2.9375416E-004	5.0376140E-004	3.5670399E+001	2.438539994545856E-007
7.9415527E+001	1.6651282E+003	1.2647742E+003	2.0910059E+003	-3.7219055E+001	5.561424864150467E+001	-6.8246858E-004	1.2089658E-003	1.5845345E+000	5.7971853E-001	1.000000000000000E+000	12	1.3143477E-001	6.2857194E-005	2.523331447423748E-005	0.0000000E+000	-1.0008604E+002	3.8083529E-004	2.8926940E-004	4.7823874E-004	3.7219055E+001	2.687352788545681E-007
7.0838745E+001	1.7260927E+003	1.3798322E+003	2.2098264E+003	-3.8638710E+001	5.636537195715937E+001	-6.8599300E-004	1.2190628E-003	1.6282573E+000	6.3483262E-001	1.000000000000000E+000	12	1.3142282E-001	5.9472008E-005	2.548962649687110E-005	0.0000000E+000	-1.0002989E+002	3.5346614E-004	2.8255951E-004	4.5252423E-004	3.8638710E+001	2.563120226336139E-007
6.3082302E+001	1.7957831E+003	1.5062612E+003	2.3438557E+003	-3.9989147E+001	5.714583700762887E+001	-6.8196515E-004	1.1892007E-003	1.6749904E+000	6.9175315E-001	1.000000000000000E+000	12	1.3142107E-001	5.6070465E-005	2.571889775335805E-005	0.0000000E+000	-1.0010207E+002	3.2688284E-004	2.7418177E-004	4.2664743E-004	3.9989147E+001	2.292712564869554E-007
5.6241817E+001	1.8753063E+003	1.6421681E+003	2.4926873E+003	-4.1207981E+001	5.789035605630488E+001	-6.8286021E-004	1.1917201E-003	1.7232299E+000	7.4789876E-001	1.000000000000000E+000	12	1.3141097E-001	5.2718595E-005	2.599626277306713E-005	0.0000000E+000	-1.0006999E+002	3.0181211E-004	2.6429078E-004	4.0117349E-004	4.1207981E+001	2.773650197090737E-007
5.0144413E+001	1.9656018E+003	1.7876576E+003	2.6569363E+003	-4.2285606E+001	5.864719921225333E+001	-6.7914929E-004	1.2012201E-003	1.7754695E+000	8.0374748E-001	1.000000000000000E+000	12	1.3141201E-001	4.9459981E-005	2.627143581751008E-005	0.0000000E+000	-1.0008604E+002	2.7844106E-004	2.5323403E-004	3.7637335E-004	4.2285606E+001	2.751730444429580E-007
4.4671219E+001	2.0696392E+003	1.9413585E+003	2.8376538E+003	-4.3168179E+001	5.966321699382388E+001	-6.8506057E-004	1.0251276E-003	1.8352134E+000	8.5897249E-001	1.000000000000000E+000	13	1.3162978E-001	4.6386835E-005	2.653078213852324E-005	0.0000000E+000	-1.0011009E+002	2.5702527E-004	2.4109430E-004	3.5240382E-004	4.3168179E+001	2.593463210131527E-007
3.9808922E+001	2.1877437E+003	2.1056848E+003	3.0364668E+003	-4.3905056E+001	6.042569103009009E+001	-6.8500463E-004	1.0132344E-003	1.8986562E+000	9.1305304E-001	1.000000000000000E+000	13	1.3158956E-001	4.3336408E-005	2.679801690792647E-005	0.0000000E+000	-1.0006197E+002	2.3727903E-004	2.2837905E-004	3.2933013E-004	4.3905056E+001	2.672347694032309E-007
3.5465305E+001	2.3227981E+003	2.2788501E+003	3.2540051E+003	-4.4452816E+001	6.117612709235982E+001	-6.8852905E-004	1.0217828E-003	1.9692492E+000	9.6581894E-001	1.000000000000000E+000	13	1.3155137E-001	4.0427523E-005	2.694603111506609E-005	0.0000000E+000	-1.0008604E+002	2.1936887E-004	2.1521837E-004	3.0731360E-004	4.4452816E+001	1.480142071396178E-007
3.1629551E+001	2.4744377E+003	2.4642698E+003	3.4922009E+003	-4.4882038E+001	6.190046320678084E+001	-6.8489276E-004	1.0204463E-003	2.0419207E+000	1.0167564E+000	1.000000000000000E+000	13	1.3153040E-001	3.7664042E-005	2.711085923880354E-005	0.0000000E+000	-1.0004594E+002	2.0289814E-004	2.0206439E-004	2.8635236E-004	4.4882038E+001	1.648281237374550E-007
2.8170074E+001	2.6482888E+003	2.6560608E+003	3.7507456E+003	-4.5083946E+001	6.270577292505186E+001	-6.8183453E-004	1.0359510E-003	2.1271305E+000	1.0666819E+000	1.000000000000000E+000	13	1.3150354E-001	3.5060639E-005	2.736361008992046E-005	0.0000000E+000	-1.0006999E+002	1.8824790E-004	1.8880033E-004	2.6661364E-004	4.5083946E+001	2.527508511169186E-007
2.5104435E+001	2.8424109E+003	2.8517329E+003	4.0263730E+003	-4.5093800E+001	6.346191912094946E+001	-6.9361989E-004	1.0416792E-003	2.2231095E+000	1.1151943E+000	1.000000000000000E+000	13	1.3147904E-001	3.2654461E-005	2.759954398034400E-005	0.0000000E+000	-1.0009406E+002	1.7533105E-004	1.7590607E-004	2.4836248E-004	4.5093800E+001	2.359338904235407E-007
2.2385387E+001	3.0597642E+003	3.0539404E+003	4.3230439E+003	-4.4945419E+001	6.414844862019527E+001	-6.9007685E-004	1.0372071E-003	2.3280642E+000	1.1618145E+000	1.000000000000000E+000	13	1.3146617E-001	3.0410556E-005	2.779029125880536E-005	0.0000000E+000	-1.0006999E+002	1.6372262E-004	1.6341099E-004	2.3131850E-004	4.4945419E+001	1.907472784613563E-007
1.9955299E+001	3.3020239E+003	3.2499558E+003	4.6330957E+003	-4.4544685E+001	6.491022244302440E+001	-6.8860373E-004	1.0264599E-003	2.4540558E+000	1.2075268E+000	1.000000000000000E+000	13	1.3145158E-001	2.8372298E-005	2.805867169513092E-005	0.0000000E+000	-1.0007802E+002	1.5382881E-004	1.5140315E-004	2.1583840E-004	4.4544685E+001	2.683804363255677E-007