EC-Lab ASCII FILE
Nb header lines : 75                          

Potentio Electrochemical Impedance Spectroscopy

Run on channel : 1 (SN 20909)
User : 
CE vs. WE compliance from -10 V to 10 V
Electrode connection : standard
Ewe ctrl range : min = -10.00 V, max = 10.00 V
Safety Limits :
	Do not start on E overload
Acquisition started on : 01/24/2020 09:52:24
Technique started on : 01/24/2020 09:52:25
Saved on :
	File : DE_40_5_60.mpr
	Directory : P:\Chemistry\Data\VMP3\Kyler\DOE\DE_40\2ND 60C\
	Host : 10.0.4.99
Device : VMP3 (SN 0183)
Address : USB
EC-Lab for windows v11.33 (software)
Internet server v11.32 (firmware)
Command interpretor v11.33 (firmware)
Electrode material : 
Initial state : 
Electrolyte : 
Comments : 
Electrode surface area : 0.001 cm²
Characteristic mass : 0.001 g
Equivalent Weight : 0.000 g/eq.
Density : 0.000 g/cm3
Record Analogic IN 1
Cycle Definition : Charge/Discharge alternance
External device configuration :
   device type : Thermostat
   device name : Other
   Analog OUT : 
      mode : E/V
      unit : T/°C
      max : 400.000 at 5.000 V
      min : -100.000 at 0.000 V
      current : 0.000
   Analog IN 1 : 
      unit : T/°C
      max : 400.000 at 5.000 V
      min : -100.000 at 0.000 V
Mode                Single sine         
E (V)               0.0000              
vs.                 Eoc                 
tE (h:m:s)          0:00:0.0000         
record              0                   
dI                  1.000               
unit dI             mA                  
dt (s)              0.000               
fi                  1.000               
unit fi             MHz                 
ff                  1.000               
unit ff             Hz                  
Nd                  20                  
Points              per decade          
spacing             Logarithmic         
Va (mV)             128.0               
pw                  0.50                
Na                  3                   
corr                0                   
E range min (V)     -10.000             
E range max (V)     10.000              
I Range             Auto                
Bandwidth           5                   
nc cycles           0                   
goto Ns'            0                   
nr cycles           0                   
inc. cycle          1                   

freq/Hz	Re(Z)/Ohm	-Im(Z)/Ohm	|Z|/Ohm	Phase(Z)/deg	time/s	<Ewe>/V	<I>/mA	Cs/µF	Cp/µF	cycle number	I Range	|Ewe|/V	|I|/A	(Q-Qo)/mA.h	Analog OUT/V	Analog IN 1/V	Re(Y)/Ohm-1	Im(Y)/Ohm-1	|Y|/Ohm-1	Phase(Y)/deg	dq/mA.h	
1.0000186E+006	5.6862843E+001	6.1688557E+001	8.3897919E+001	-4.7330978E+001	1.850481341214618E+000	-1.9084888E-002	3.1108933E-003	2.5799272E-003	1.3948076E-003	1.000000000000000E+000	11	2.0169229E-003	2.4040202E-005	8.074783344287021E-007	0.0000000E+000	-1.0005396E+002	8.0784149E-003	8.7639978E-003	1.1919247E-002	4.7330978E+001	8.074783344287021E-007
8.9124669E+005	6.3966206E+001	5.8204247E+001	8.6483582E+001	-4.2299744E+001	2.447491982864449E+000	-1.8571723E-002	3.1187322E-003	3.0680860E-003	1.3896632E-003	1.000000000000000E+000	11	3.1898534E-003	3.6883917E-005	1.326072219570859E-006	0.0000000E+000	-1.0006999E+002	8.5523063E-003	7.7819303E-003	1.1562889E-002	4.2299744E+001	5.185938851421573E-007
7.9433269E+005	7.0763611E+001	5.5586605E+001	8.9985329E+001	-3.8150532E+001	3.043487451184774E+000	-1.8132588E-002	3.0524780E-003	3.6045208E-003	1.3754488E-003	1.000000000000000E+000	11	4.9015293E-003	5.4470318E-005	1.735351093241964E-006	0.0000000E+000	-1.0006999E+002	8.7390970E-003	6.8647820E-003	1.1112923E-002	3.8150532E+001	4.092788736711050E-007
7.0794981E+005	7.7040985E+001	5.3435379E+001	9.3758484E+001	-3.4745052E+001	3.639488812856143E+000	-1.7704904E-002	3.0593846E-003	4.2071575E-003	1.3665495E-003	1.000000000000000E+000	11	7.2289226E-003	7.7101533E-005	2.203019899055815E-006	0.0000000E+000	-1.0008604E+002	8.7639662E-003	6.0786586E-003	1.0665702E-002	3.4745052E+001	4.676688058138502E-007
6.3095681E+005	8.3068130E+001	5.1515491E+001	9.7745384E+001	-3.1805513E+001	4.234492867748486E+000	-1.7293461E-002	3.2503100E-003	4.8964648E-003	1.3600843E-003	1.000000000000000E+000	11	1.0245653E-002	1.0481981E-004	2.714947034852028E-006	0.0000000E+000	-1.0006197E+002	8.6944466E-003	5.3919433E-003	1.0230662E-002	3.1805513E+001	5.119271357962131E-007
5.6234225E+005	8.8546623E+001	4.9496132E+001	1.0144147E+002	-2.9204485E+001	4.829477962717647E+000	-1.6977569E-002	3.0647982E-003	5.7180529E-003	1.3613182E-003	1.000000000000000E+000	11	1.3974044E-002	1.3775475E-004	3.285442745905635E-006	0.0000000E+000	-1.0011812E+002	8.6048031E-003	4.8099458E-003	9.8579014E-003	2.9204485E+001	5.704957110536071E-007
5.0120619E+005	9.3674294E+001	4.7390209E+001	1.0497955E+002	-2.6835037E+001	5.426493004400982E+000	-1.6671021E-002	3.1678204E-003	6.7006219E-003	1.3654726E-003	1.000000000000000E+000	11	1.8431980E-002	1.7557688E-004	3.747150916674905E-006	0.0000000E+000	-1.0005396E+002	8.4998459E-003	4.3001072E-003	9.5256651E-003	2.6835037E+001	4.617081707692706E-007
4.4668572E+005	9.8271843E+001	4.5118546E+001	1.0813435E+002	-2.4660791E+001	6.021473645960214E+000	-1.6416479E-002	3.2409818E-003	7.8970147E-003	1.3748198E-003	1.000000000000000E+000	11	2.3615168E-002	2.1838729E-004	4.011371475835202E-006	0.0000000E+000	-1.0008604E+002	8.4043033E-003	3.8585819E-003	9.2477547E-003	2.4660791E+001	2.642205591602964E-007
3.9810347E+005	1.0246886E+002	4.2635323E+001	1.1098486E+002	-2.2591255E+001	6.616481700883014E+000	-1.6272593E-002	3.0840251E-003	9.3767997E-003	1.3837776E-003	1.000000000000000E+000	11	2.9537752E-002	2.6614219E-004	4.428476313364197E-006	0.0000000E+000	-1.0006197E+002	8.3188731E-003	3.4613230E-003	9.0102386E-003	2.2591255E+001	4.171048375289952E-007
3.5480997E+005	1.0611633E+002	3.9985653E+001	1.1339986E+002	-2.0646891E+001	7.211488689150428E+000	-1.6162051E-002	3.0707759E-003	1.1218121E-002	1.3947728E-003	1.000000000000000E+000	11	3.6241852E-002	3.1959344E-004	5.169524307074931E-006	0.0000000E+000	-1.0007802E+002	8.2519613E-003	3.1094181E-003	8.8183526E-003	2.0646891E+001	7.410479937107336E-007
3.1622997E+005	1.0930849E+002	3.7307446E+001	1.1549975E+002	-1.8844988E+001	7.807490690815030E+000	-1.6097007E-002	3.0898149E-003	1.3490299E-002	1.4075070E-003	1.000000000000000E+000	11	4.3807507E-002	3.7928659E-004	6.214094046134657E-006	0.0000000E+000	-1.0006197E+002	8.1939222E-003	2.7966199E-003	8.6580273E-003	1.8844988E+001	1.044569739059727E-006
2.8183453E+005	1.1201779E+002	3.4581570E+001	1.1723425E+002	-1.7156242E+001	8.402481572382385E+000	-1.6065698E-002	3.0198290E-003	1.6329814E-002	1.4208937E-003	1.000000000000000E+000	11	5.2283216E-002	4.4597220E-004	5.943712995877528E-006	0.0000000E+000	-1.0006999E+002	8.1503820E-003	2.5161454E-003	8.5299304E-003	1.7156242E+001	-2.703810502571292E-007
2.5118764E+005	1.1427356E+002	3.1934153E+001	1.1865174E+002	-1.5613210E+001	8.997482107341057E+000	-1.6008206E-002	3.1284494E-003	1.9841133E-002	1.4372391E-003	1.000000000000000E+000	11	6.1724439E-002	5.2021520E-004	6.519448085008965E-006	0.0000000E+000	-1.0009406E+002	8.1170360E-003	2.2683346E-003	8.4280260E-003	1.5613210E+001	5.757350891314375E-007
2.2387173E+005	1.1610520E+002	2.9397146E+001	1.1976899E+002	-1.4208354E+001	9.593490002298495E+000	-1.5980776E-002	3.0588373E-003	2.4183307E-002	1.4569252E-003	1.000000000000000E+000	11	7.2134957E-002	6.0228410E-004	6.418981818369099E-006	0.0000000E+000	-1.0007802E+002	8.0939950E-003	2.0493513E-003	8.3494065E-003	1.4208354E+001	-1.004662666398669E-007
1.9954350E+005	1.1763333E+002	2.7066214E+001	1.2070700E+002	-1.2957644E+001	1.019047301731189E+001	-1.5951928E-002	3.0202090E-003	2.9468298E-002	1.4816484E-003	1.000000000000000E+000	11	8.3511718E-002	6.9185480E-004	6.931899399061675E-006	0.0000000E+000	-1.0014217E+002	8.0735674E-003	1.8576446E-003	8.2845241E-003	1.2957644E+001	5.129175806925761E-007
1.7783180E+005	1.1886266E+002	2.4939262E+001	1.2145081E+002	-1.1849669E+001	1.078647459231433E+001	-1.5912114E-002	3.1432039E-003	3.5886168E-002	1.5131900E-003	1.000000000000000E+000	11	9.5819227E-002	7.8895502E-004	6.107636937978289E-006	0.0000000E+000	-1.0005396E+002	8.0583217E-003	1.6907630E-003	8.2337856E-003	1.1849669E+001	-8.242624610833853E-007
1.5848613E+005	1.1988663E+002	2.3027571E+001	1.2207815E+002	-1.0872828E+001	1.138247971396777E+001	-1.5892440E-002	3.0399985E-003	4.3609466E-002	1.5516764E-003	1.000000000000000E+000	11	1.0902464E-001	8.9307252E-004	5.834951984893350E-006	0.0000000E+000	-1.0007802E+002	8.0444226E-003	1.5451557E-003	8.1914738E-003	1.0872828E+001	-2.726849530849395E-007
1.4125594E+005	1.2076284E+002	2.1341320E+001	1.2263407E+002	-1.0021889E+001	1.184149720243295E+001	-1.5859229E-002	3.2604092E-003	5.2794918E-002	1.5988672E-003	1.000000000000000E+000	11	1.2321672E-001	1.0047511E-003	6.463603730025675E-006	0.0000000E+000	-1.0005396E+002	8.0299163E-003	1.4190542E-003	8.1543410E-003	1.0021889E+001	6.286517451323254E-007
1.2590930E+005	1.2148752E+002	1.9850996E+001	1.2309866E+002	-9.2800894E+000	1.230148943761014E+001	-1.5854586E-002	3.1463800E-003	6.3676625E-002	1.6559149E-003	1.000000000000000E+000	11	1.3842458E-001	1.1245011E-003	7.254142130825333E-006	0.0000000E+000	-1.0004594E+002	8.0172429E-003	1.3100132E-003	8.1235655E-003	9.2800894E+000	7.905384007996574E-007
1.1220494E+005	1.2210448E+002	1.8542553E+001	1.2350437E+002	-8.6348553E+000	1.289648557253531E+001	-1.5745534E-002	3.3996392E-003	7.6495983E-002	1.7243008E-003	1.000000000000000E+000	11	1.3043599E-001	1.0561245E-003	8.412380173356117E-006	0.0000000E+000	-1.0003791E+002	8.0051031E-003	1.2156396E-003	8.0968793E-003	8.6348553E+000	1.158238042530785E-006
1.0000371E+005	1.2261892E+002	1.7415495E+001	1.2384950E+002	-8.0836210E+000	1.349349421422812E+001	-1.5723437E-002	3.2318565E-003	9.1383584E-002	1.8069714E-003	1.000000000000000E+000	11	1.2971929E-001	1.0473945E-003	8.503390944585489E-006	0.0000000E+000	-1.0005396E+002	7.9940893E-003	1.1353960E-003	8.0743162E-003	8.0836210E+000	9.101077122937214E-008
8.9129305E+004	1.2304677E+002	1.6444475E+001	1.2414076E+002	-7.6121373E+000	1.408847608245560E+001	-1.5691344E-002	3.0989745E-003	1.0858744E-001	1.9054204E-003	1.000000000000000E+000	11	1.2945209E-001	1.0427848E-003	8.963658800206354E-006	0.0000000E+000	-1.0004594E+002	7.9843840E-003	1.0670659E-003	8.0553722E-003	7.6121373E+000	4.602678556208646E-007
7.9433273E+004	1.2340788E+002	1.5661393E+001	1.2439768E+002	-7.2326050E+000	1.468348237741156E+001	-1.5652351E-002	3.1019610E-003	1.2793438E-001	2.0277924E-003	1.000000000000000E+000	11	1.2957460E-001	1.0416158E-003	1.035052727505293E-005	0.0000000E+000	-1.0008604E+002	7.9747727E-003	1.0120589E-003	8.0387350E-003	7.2326050E+000	1.386868474846576E-006
7.0794977E+004	1.2370309E+002	1.5043037E+001	1.2461440E+002	-6.9334669E+000	1.527948504572851E+001	-1.5641367E-002	3.1131590E-003	1.4944525E-001	2.1777940E-003	1.000000000000000E+000	11	1.2948300E-001	1.0390694E-003	1.246142495685490E-005	0.0000000E+000	-1.0007802E+002	7.9660695E-003	9.6872187E-004	8.0247549E-003	6.9334669E+000	2.110897681801968E-006
6.3093828E+004	1.2395555E+002	1.4582212E+001	1.2481033E+002	-6.7094750E+000	1.587649198071449E+001	-1.5610115E-002	3.2131933E-003	1.7298554E-001	2.3613239E-003	1.000000000000000E+000	11	1.2944883E-001	1.0371644E-003	1.311335871669386E-005	0.0000000E+000	-1.0006999E+002	7.9572843E-003	9.3610014E-004	8.0121569E-003	6.7094750E+000	6.519337598389639E-007
5.6237012E+004	1.2417142E+002	1.4300367E+001	1.2499217E+002	-6.5696020E+000	1.647248174235574E+001	-1.5601966E-002	3.0737792E-003	1.9790223E-001	2.5904754E-003	1.000000000000000E+000	11	1.2925939E-001	1.0341399E-003	1.396681410631896E-005	0.0000000E+000	-1.0014217E+002	7.9479674E-003	9.1533823E-004	8.0005014E-003	6.5696020E+000	8.534553896250945E-007
5.0122477E+004	1.2437144E+002	1.4175097E+001	1.2517663E+002	-6.5021648E+000	1.693249720419408E+001	-1.5596595E-002	3.1228648E-003	2.2400701E-001	2.8725469E-003	1.000000000000000E+000	11	1.4037499E-001	1.1214153E-003	1.402669409042897E-005	0.0000000E+000	-1.0008604E+002	7.9373252E-003	9.0464775E-004	7.9887118E-003	6.5021648E+000	5.987998411001208E-008
4.4666715E+004	1.2454088E+002	1.4213685E+001	1.2534935E+002	-6.5109196E+000	1.752949656589772E+001	-1.5557099E-002	3.1786661E-003	2.5068560E-001	3.2232844E-003	1.000000000000000E+000	11	1.3043272E-001	1.0405537E-003	1.298424827588800E-005	0.0000000E+000	-1.0005396E+002	7.9262499E-003	9.0461230E-004	7.9777036E-003	6.5109196E+000	-1.042445814540972E-006
3.9814063E+004	1.2470530E+002	1.4423618E+001	1.2553666E+002	-6.5976076E+000	1.798849610771867E+001	-1.5578077E-002	3.0916964E-003	2.7714652E-001	3.6586153E-003	1.000000000000000E+000	11	1.3995363E-001	1.1148427E-003	1.339977525381740E-005	0.0000000E+000	-1.0009406E+002	7.9130474E-003	9.1523596E-004	7.9658004E-003	6.5976076E+000	4.155269779294031E-007
3.5480996E+004	1.2485240E+002	1.4805266E+001	1.2572716E+002	-6.7626767E+000	1.858447858932777E+001	-1.5562731E-002	3.0388793E-003	3.0297592E-001	4.2012869E-003	1.000000000000000E+000	11	1.3012306E-001	1.0349639E-003	1.174385635612149E-005	0.0000000E+000	-1.0009406E+002	7.8983931E-003	9.3660841E-004	7.9537313E-003	6.7626767E+000	-1.655918897695907E-006
3.1621143E+004	1.2501526E+002	1.5358125E+001	1.2595510E+002	-7.0036936E+000	1.904447495788918E+001	-1.5550684E-002	3.0969225E-003	3.2772109E-001	4.8724706E-003	1.000000000000000E+000	11	1.3783488E-001	1.0943175E-003	1.294576061094995E-005	0.0000000E+000	-1.0007802E+002	7.8800954E-003	9.6806977E-004	7.9393368E-003	7.0036936E+000	1.201904254828453E-006
2.8188096E+004	1.2516031E+002	1.6086355E+001	1.2618983E+002	-7.3238463E+000	1.964047858616686E+001	-1.5541882E-002	3.0614610E-003	3.5099161E-001	5.7037869E-003	1.000000000000000E+000	11	1.2966023E-001	1.0275014E-003	1.466133947840556E-005	0.0000000E+000	-1.0005396E+002	7.8599164E-003	1.0102036E-003	7.9245688E-003	7.3238463E+000	1.715578867455609E-006
2.5116910E+004	1.2534182E+002	1.7003483E+001	1.2648988E+002	-7.7254086E+000	2.010048690138501E+001	-1.5533173E-002	3.0573560E-003	3.7266278E-001	6.7341099E-003	1.000000000000000E+000	11	1.3558768E-001	1.0719250E-003	1.589726887774628E-005	0.0000000E+000	-1.0007802E+002	7.8340154E-003	1.0627384E-003	7.9057710E-003	7.7254086E+000	1.235929399340722E-006
2.2389027E+004	1.2553304E+002	1.8112877E+001	1.2683304E+002	-8.2104130E+000	2.069549244959489E+001	-1.5529967E-002	3.0836705E-003	3.9246187E-001	8.0040088E-003	1.000000000000000E+000	11	1.2926485E-001	1.0191733E-003	1.546582243951788E-005	0.0000000E+000	-1.0004594E+002	7.8035686E-003	1.1259591E-003	7.8843813E-003	8.2104130E+000	-4.314464382283990E-007
1.9948783E+004	1.2574995E+002	1.9452578E+001	1.2724564E+002	-8.7935276E+000	2.115449185806210E+001	-1.5520419E-002	3.1433932E-003	4.1013473E-001	9.5850648E-003	1.000000000000000E+000	11	1.3356949E-001	1.0496980E-003	1.635822074392733E-005	0.0000000E+000	-1.0006197E+002	7.7664405E-003	1.2014102E-003	7.8588156E-003	8.7935276E+000	8.923983044094514E-007
1.7786895E+004	1.2601228E+002	2.0998524E+001	1.2774989E+002	-9.4607630E+000	2.161349526655977E+001	-1.5523999E-002	3.1260373E-003	4.2611933E-001	1.1512980E-002	1.000000000000000E+000	11	1.3728666E-001	1.0746520E-003	1.566124354029954E-005	0.0000000E+000	-1.0008604E+002	7.7213254E-003	1.2866716E-003	7.8277960E-003	9.4607630E+000	-6.969772036277919E-007
1.5847686E+004	1.2630087E+002	2.2790010E+001	1.2834055E+002	-1.0228514E+001	2.207248931503273E+001	-1.5527169E-002	3.0855369E-003	4.4066623E-001	1.3895400E-002	1.000000000000000E+000	11	1.4046186E-001	1.0944465E-003	1.548892191203130E-005	0.0000000E+000	-1.0008604E+002	7.6679378E-003	1.3836197E-003	7.7917697E-003	1.0228514E+001	-1.723216282682394E-007
1.4121879E+004	1.2662479E+002	2.4846077E+001	1.2903940E+002	-1.1101429E+001	2.266749736995553E+001	-1.5511431E-002	3.1381655E-003	4.5359662E-001	1.6816702E-002	1.000000000000000E+000	11	1.2951931E-001	1.0037192E-003	1.560608350387904E-005	0.0000000E+000	-1.0008604E+002	7.6045599E-003	1.4921523E-003	7.7495710E-003	1.1101429E+001	1.171615918477373E-007
1.2590932E+004	1.2701842E+002	2.7161430E+001	1.2989005E+002	-1.2070256E+001	2.312647947177175E+001	-1.5518218E-002	3.0924408E-003	4.6538204E-001	2.0349942E-002	1.000000000000000E+000	11	1.3149139E-001	1.0123284E-003	1.671012530475208E-005	0.0000000E+000	-1.0002187E+002	7.5286133E-003	1.6099074E-003	7.6988195E-003	1.2070256E+001	1.104041800873047E-006
1.1217711E+004	1.2747419E+002	2.9789686E+001	1.3090872E+002	-1.3153505E+001	2.358547738686320E+001	-1.5513146E-002	3.0491424E-003	4.7626641E-001	2.4662931E-002	1.000000000000000E+000	11	1.3310614E-001	1.0167859E-003	1.727112752646725E-005	0.0000000E+000	-1.0013416E+002	7.4384948E-003	1.7383161E-003	7.6389103E-003	1.3153505E+001	5.610022217151691E-007
1.0002229E+004	1.2801424E+002	3.2731117E+001	1.3213240E+002	-1.4342311E+001	2.404547594205360E+001	-1.5507254E-002	3.0999065E-003	4.8614123E-001	2.9830839E-002	1.000000000000000E+000	11	1.3438793E-001	1.0170701E-003	1.719364234921522E-005	0.0000000E+000	-1.0001385E+002	7.3322901E-003	1.8747448E-003	7.5681666E-003	1.4342311E+001	-7.748517725202832E-008
8.9149297E+003	1.2863194E+002	3.6030426E+001	1.3358281E+002	-1.5647815E+001	2.452791161835194E+001	-1.5487151E-002	3.1919151E-003	4.9548760E-001	3.6047108E-002	1.000000000000000E+000	11	1.3538626E-001	1.0135006E-003	1.710567700243943E-005	0.0000000E+000	-1.0006197E+002	7.2085457E-003	2.0191483E-003	7.4859932E-003	1.5647815E+001	-8.796534677579421E-008
7.9439976E+003	1.2936478E+002	3.9717815E+001	1.3532462E+002	-1.7067631E+001	2.505398249666905E+001	-1.5485696E-002	3.2695550E-003	5.0442392E-001	4.3452300E-002	1.000000000000000E+000	11	1.3616198E-001	1.0061879E-003	1.760619695474290E-005	0.0000000E+000	-1.0006999E+002	7.0641912E-003	2.1688612E-003	7.3896386E-003	1.7067631E+001	5.005199523034708E-007
7.0822334E+003	1.3020238E+002	4.3800385E+001	1.3737224E+002	-1.8593061E+001	2.563088876407710E+001	-1.5476615E-002	3.2876560E-003	5.1306450E-001	5.2159075E-002	1.000000000000000E+000	11	1.3672656E-001	9.9529978E-004	1.730224761302816E-005	0.0000000E+000	-1.0006197E+002	6.8995529E-003	2.3210258E-003	7.2794911E-003	1.8593061E+001	-3.039493417147441E-007
6.3077344E+003	1.3118541E+002	4.8378296E+001	1.3982156E+002	-2.0242867E+001	2.626555484751589E+001	-1.5464531E-002	3.1788514E-003	5.2155024E-001	6.2438000E-002	1.000000000000000E+000	11	1.3714868E-001	9.8088360E-004	1.861432896617205E-005	0.0000000E+000	-1.0005396E+002	6.7102266E-003	2.4745842E-003	7.1519725E-003	2.0242867E+001	1.312081353143894E-006
5.6210552E+003	1.3230478E+002	5.3411232E+001	1.4267906E+002	-2.1983852E+001	2.696625781411421E+001	-1.5462779E-002	3.1728800E-003	5.3011447E-001	7.4287266E-002	1.000000000000000E+000	11	1.3741381E-001	9.6309726E-004	1.869879581428055E-005	0.0000000E+000	-1.0006197E+002	6.4991275E-003	2.6236875E-003	7.0087370E-003	2.1983852E+001	8.446684810850218E-008
5.0116035E+003	1.3359711E+002	5.8944305E+001	1.4602266E+002	-2.3807526E+001	2.772668195697042E+001	-1.5473184E-002	3.0791913E-003	5.3876770E-001	8.7789945E-002	1.000000000000000E+000	11	1.3757044E-001	9.4211707E-004	1.994631080031266E-005	0.0000000E+000	-1.0007802E+002	6.2655117E-003	2.7644031E-003	6.8482524E-003	2.3807526E+001	1.247514986032104E-006
4.4664292E+003	1.3508623E+002	6.5054169E+001	1.4993443E+002	-2.5714310E+001	2.848671103306697E+001	-1.5453212E-002	3.1949033E-003	5.4775274E-001	1.0311742E-001	1.000000000000000E+000	11	1.3764243E-001	9.1801747E-004	2.049501917003525E-005	0.0000000E+000	-1.0008604E+002	6.0090846E-003	2.8938255E-003	6.6695819E-003	2.5714310E+001	5.487083697225891E-007
3.9812742E+003	1.3680214E+002	7.1774208E+001	1.5448741E+002	-2.7684069E+001	2.924670562916435E+001	-1.5464550E-002	3.0831099E-003	5.5696720E-001	1.2022097E-001	1.000000000000000E+000	11	1.3763882E-001	8.9093874E-004	2.191105366265725E-005	0.0000000E+000	-1.0004594E+002	5.7320064E-003	3.0073379E-003	6.4730193E-003	2.7684069E+001	1.416034492622000E-006
3.5465955E+003	1.3876833E+002	7.9198700E+001	1.5977823E+002	-2.9714529E+001	3.000695206524688E+001	-1.5471618E-002	3.0696730E-003	5.6661808E-001	1.3921671E-001	1.000000000000000E+000	11	1.3757440E-001	8.6103351E-004	2.301060015463089E-005	0.0000000E+000	-1.0008604E+002	5.4356959E-003	3.1022932E-003	6.2586749E-003	2.9714529E+001	1.099546491973647E-006
3.1610112E+003	1.4101732E+002	8.7303085E+001	1.6585449E+002	-3.1761435E+001	3.076667351469223E+001	-1.5459348E-002	3.1333130E-003	5.7671934E-001	1.5979722E-001	1.000000000000000E+000	11	1.3747379E-001	8.2888192E-004	2.416202430533142E-005	0.0000000E+000	-1.0008604E+002	5.1264646E-003	3.1737676E-003	6.0293814E-003	3.1761435E+001	1.151424150700524E-006
2.8172952E+003	1.4356865E+002	9.6173080E+001	1.7280399E+002	-3.3817150E+001	3.152692621745518E+001	-1.5466788E-002	3.0864684E-003	5.8740044E-001	1.8194234E-001	1.000000000000000E+000	11	1.3734405E-001	7.9479674E-004	2.535106124489620E-005	0.0000000E+000	-1.0008604E+002	4.8078634E-003	3.2206683E-003	5.7869037E-003	3.3817150E+001	1.189036939564785E-006
2.5108032E+003	1.4645326E+002	1.0587644E+002	1.8071629E+002	-3.5864548E+001	3.228667988022789E+001	-1.5463842E-002	3.0528731E-003	5.9869844E-001	2.0550017E-001	1.000000000000000E+000	11	1.3719954E-001	7.5919850E-004	2.548100847935226E-005	0.0000000E+000	-1.0010207E+002	4.4844011E-003	3.2419381E-003	5.5335355E-003	3.5864548E+001	1.299472344560623E-007
2.2378516E+003	1.4968829E+002	1.1646486E+002	1.8965930E+002	-3.7884674E+001	3.304695927631110E+001	-1.5468280E-002	3.0364483E-003	6.1065227E-001	2.3026900E-001	1.000000000000000E+000	11	1.3703674E-001	7.2254165E-004	2.546621426379231E-005	0.0000000E+000	-1.0007802E+002	4.1614007E-003	3.2377748E-003	5.2726124E-003	3.7884674E+001	-1.479421555995668E-008
1.9956389E+003	1.5331718E+002	1.2797194E+002	1.9970723E+002	-3.9851330E+001	3.380668539241742E+001	-1.5463692E-002	3.0999014E-003	6.2319422E-001	2.5589710E-001	1.000000000000000E+000	11	1.3687694E-001	6.8538799E-004	2.667307571241205E-005	0.0000000E+000	-1.0003791E+002	3.8441760E-003	3.2086857E-003	5.0073299E-003	3.9851330E+001	1.206861448619745E-006
1.7782927E+003	1.5736296E+002	1.4061523E+002	2.1103494E+002	-4.1783100E+001	3.456694148184033E+001	-1.5469660E-002	3.0765699E-003	6.3647962E-001	2.8257942E-001	1.000000000000000E+000	11	1.3671997E-001	6.4785464E-004	2.713238534535695E-005	0.0000000E+000	-1.0003791E+002	3.5334078E-003	3.1573565E-003	4.7385516E-003	4.1783100E+001	4.593096329449010E-007
1.5855076E+003	1.6184641E+002	1.5431744E+002	2.2362498E+002	-4.3635845E+001	3.532671269128332E+001	-1.5457502E-002	3.1965710E-003	6.5048426E-001	3.0976060E-001	1.000000000000000E+000	11	1.3657317E-001	6.1072409E-004	2.729185811147585E-005	0.0000000E+000	-1.0014217E+002	3.2364018E-003	3.0858470E-003	4.4717724E-003	4.3635845E+001	1.594727661188993E-007
1.4118373E+003	1.6687778E+002	1.6947194E+002	2.3784224E+002	-4.5441898E+001	3.608821283405996E+001	-1.5458881E-002	3.1273304E-003	6.6517770E-001	3.3771887E-001	1.000000000000000E+000	11	1.3643715E-001	5.7364558E-004	2.777988908303410E-005	0.0000000E+000	-1.0008604E+002	2.9499901E-003	2.9958487E-003	4.2044679E-003	4.5441898E+001	4.880309715582473E-007
1.2587914E+003	1.7233174E+002	1.8576312E+002	2.5338936E+002	-4.7148037E+001	3.684792767019826E+001	-1.5463729E-002	3.0812311E-003	6.8062335E-001	3.6580455E-001	1.000000000000000E+000	11	1.3630566E-001	5.3792971E-004	2.796967812378757E-005	0.0000000E+000	-1.0009406E+002	2.6840372E-003	2.8932288E-003	3.9464957E-003	4.7148037E+001	1.897890407534683E-007
1.1217948E+003	1.7837704E+002	2.0362352E+002	2.7070447E+002	-4.8781189E+001	3.760641119952197E+001	-1.5470387E-002	3.0812304E-003	6.9675285E-001	3.9422467E-001	1.000000000000000E+000	11	1.3619092E-001	5.0309818E-004	2.896888383597252E-005	0.0000000E+000	-1.0008604E+002	2.4341543E-003	2.7786708E-003	3.6940654E-003	4.8781189E+001	9.992057121849523E-007
1.0003201E+003	1.8494827E+002	2.2301047E+002	2.8972321E+002	-5.0330215E+001	3.836569350229547E+001	-1.5470667E-002	3.0506237E-003	7.1343744E-001	4.2270738E-001	1.000000000000000E+000	11	1.3609037E-001	4.6972546E-004	2.943846269906498E-005	0.0000000E+000	-1.0006999E+002	2.2033511E-003	2.6567988E-003	3.4515702E-003	5.0330215E+001	4.695788630924645E-007
8.9142657E+002	1.9218999E+002	2.4423210E+002	3.1078339E+002	-5.1800251E+001	3.912441481827409E+001	-1.5457893E-002	3.1407666E-003	7.3102427E-001	4.5146251E-001	1.000000000000000E+000	11	1.3599713E-001	4.3759460E-004	2.992299124113520E-005	0.0000000E+000	-1.0011009E+002	1.9898263E-003	2.5286409E-003	3.2176753E-003	5.1800251E+001	4.845285420702154E-007
7.9423773E+002	2.0013828E+002	2.6755478E+002	3.3412704E+002	-5.3202507E+001	4.013496454630513E+001	-1.5473352E-002	1.2407597E-003	7.4895704E-001	4.8024082E-001	1.000000000000000E+000	12	1.4004534E-001	4.1913803E-004	3.066803672036783E-005	0.0000000E+000	-1.0006197E+002	1.7926970E-003	2.3965661E-003	2.9928735E-003	5.3202507E+001	7.450454792326342E-007
7.0750946E+002	2.0880853E+002	2.9300162E+002	3.5979294E+002	-5.4524307E+001	4.089744066252024E+001	-1.5468634E-002	1.2206585E-003	7.6774651E-001	5.0915807E-001	1.000000000000000E+000	12	1.3932569E-001	3.8723854E-004	3.098044639653947E-005	0.0000000E+000	-1.0006197E+002	1.6130321E-003	2.2634179E-003	2.7793765E-003	5.4524307E+001	3.124096761716348E-007
6.3100964E+002	2.1809937E+002	3.2051230E+002	3.8767960E+002	-5.5765846E+001	4.165541811185540E+001	-1.5462294E-002	1.2109902E-003	7.8693610E-001	5.3787696E-001	1.000000000000000E+000	12	1.3870771E-001	3.5778957E-004	3.128793095596323E-005	0.0000000E+000	-1.0008604E+002	1.4511372E-003	2.1325480E-003	2.5794497E-003	5.5765846E+001	3.074845594237566E-007
5.6233929E+002	2.2824457E+002	3.5078134E+002	4.1850107E+002	-5.6948963E+001	4.241194076114334E+001	-1.5459385E-002	1.2194257E-003	8.0683589E-001	5.6684595E-001	1.000000000000000E+000	12	1.3817781E-001	3.3017315E-004	3.183832271272614E-005	0.0000000E+000	-1.0006999E+002	1.3031887E-003	2.0028267E-003	2.3894801E-003	5.6948963E+001	5.503917567629141E-007
5.0144415E+002	2.3920021E+002	3.8373312E+002	4.5218121E+002	-5.8062634E+001	4.316919807708473E+001	-1.5471785E-002	1.2418588E-003	8.2711953E-001	5.9566462E-001	1.000000000000000E+000	12	1.3772950E-001	3.0458916E-004	3.193438604442053E-005	0.0000000E+000	-1.0010207E+002	1.1698670E-003	1.8767407E-003	2.2115028E-003	5.8062634E+001	9.606333169439495E-008
4.4685895E+002	2.5113834E+002	4.1994067E+002	4.8930627E+002	-5.9119186E+001	4.392591800636728E+001	-1.5466657E-002	1.2433328E-003	8.4812862E-001	6.2470657E-001	1.000000000000000E+000	12	1.3734180E-001	2.8068677E-004	3.245613251080633E-005	0.0000000E+000	-1.0008604E+002	1.0489420E-003	1.7539870E-003	2.0437099E-003	5.9119186E+001	5.217464663857983E-007
3.9808920E+002	2.6408621E+002	4.5976163E+002	5.3020966E+002	-6.0127022E+001	4.468872636261221E+001	-1.5466322E-002	1.2321888E-003	8.6957490E-001	6.5384859E-001	1.000000000000000E+000	12	1.3703530E-001	2.5845494E-004	3.266685995281377E-005	0.0000000E+000	-1.0005396E+002	9.3939976E-004	1.6354506E-003	1.8860464E-003	6.0127022E+001	2.107274420074350E-007
3.5465955E+002	2.7796829E+002	5.0336206E+002	5.7501282E+002	-6.1091492E+001	4.544894221203867E+001	-1.5468615E-002	1.2503852E-003	8.9151371E-001	6.8317807E-001	1.000000000000000E+000	12	1.3676673E-001	2.3784989E-004	3.308106776175555E-005	0.0000000E+000	-1.0010207E+002	8.4069849E-004	1.5223883E-003	1.7390917E-003	6.1091492E+001	4.142078089417801E-007
3.1631586E+002	2.9292142E+002	5.5069501E+002	6.2375311E+002	-6.1990940E+001	4.620592864800710E+001	-1.5464103E-002	1.2318892E-003	9.1366720E-001	7.1217191E-001	1.000000000000000E+000	12	1.3654655E-001	2.1891121E-004	3.314826765523402E-005	0.0000000E+000	-1.0004594E+002	7.5287989E-004	1.4154211E-003	1.6031984E-003	6.1990940E+001	6.719989347846975E-008
2.8189429E+002	3.0904861E+002	6.0300757E+002	6.7759070E+002	-6.2864315E+001	4.696139705719543E+001	-1.5465203E-002	1.2325611E-003	9.3629146E-001	7.4151808E-001	1.000000000000000E+000	12	1.3636160E-001	2.0124479E-004	3.352023559961688E-005	0.0000000E+000	-1.0005396E+002	6.7311910E-004	1.3133724E-003	1.4758172E-003	6.2864315E+001	3.719679443828629E-007
2.5104436E+002	3.2657083E+002	6.6073346E+002	7.3703271E+002	-6.3698883E+001	4.771790541315568E+001	-1.5468578E-002	1.2271855E-003	9.5949638E-001	7.7112079E-001	1.000000000000000E+000	12	1.3620648E-001	1.8480384E-004	3.364062568468216E-005	0.0000000E+000	-1.0007802E+002	6.0117908E-004	1.2163337E-003	1.3567918E-003	6.3698883E+001	1.203900850652818E-007
2.2392513E+002	3.4517328E+002	7.2328058E+002	8.0142334E+002	-6.4487991E+001	4.848070960940095E+001	-1.5465744E-002	1.2270173E-003	9.8267639E-001	8.0038720E-001	1.000000000000000E+000	12	1.3608243E-001	1.6980093E-004	3.377356893330822E-005	0.0000000E+000	-1.0003791E+002	5.3741917E-004	1.1261152E-003	1.2477799E-003	6.4487991E+001	1.329432486260617E-007
1.9955299E+002	3.6529608E+002	7.9256110E+002	8.7269373E+002	-6.5254745E+001	4.924219460555469E+001	-1.5462144E-002	1.2448222E-003	1.0063038E+000	8.2998627E-001	1.000000000000000E+000	12	1.3597609E-001	1.5581193E-004	3.386645255280018E-005	0.0000000E+000	-1.0008604E+002	4.7964655E-004	1.0406604E-003	1.1458774E-003	6.5254745E+001	9.288361949195967E-008
1.7778128E+002	3.8687839E+002	8.6900696E+002	9.5123499E+002	-6.6001564E+001	5.001023397533572E+001	-1.5472401E-002	1.2332876E-003	1.0301746E+000	8.5976893E-001	1.000000000000000E+000	12	1.3588534E-001	1.4285150E-004	3.410344427668396E-005	0.0000000E+000	-1.0006197E+002	4.2756175E-004	9.6038997E-004	1.0512649E-003	6.6001564E+001	2.369917238837757E-007
1.5842838E+002	4.1007574E+002	9.5299384E+002	1.0374774E+003	-6.6717667E+001	5.077675267844461E+001	-1.5460746E-002	1.2428615E-003	1.0541370E+000	8.8944679E-001	1.000000000000000E+000	12	1.3581413E-001	1.3090804E-004	3.438848491561658E-005	0.0000000E+000	-1.0006999E+002	3.8098398E-004	8.8538631E-004	9.6387637E-004	6.6717667E+001	2.850406389326164E-007
1.4131134E+002	4.3454553E+002	1.0447112E+003	1.1314819E+003	-6.7415230E+001	5.152988359422307E+001	-1.5475851E-002	1.2491131E-003	1.0780698E+000	9.1906053E-001	1.000000000000000E+000	12	1.3575467E-001	1.1997953E-004	3.468622581125722E-005	0.0000000E+000	-1.0002989E+002	3.3942205E-004	8.1602042E-004	8.8379672E-004	6.7415230E+001	2.977408956406427E-007
1.2584569E+002	4.6130090E+002	1.1471390E+003	1.2364167E+003	-6.8093376E+001	5.228541643006611E+001	-1.5470909E-002	1.2400239E-003	1.1024673E+000	9.4900411E-001	1.000000000000000E+000	12	1.3570501E-001	1.0975669E-004	3.489908037600657E-005	0.0000000E+000	-1.0009406E+002	3.0175509E-004	7.5038872E-004	8.0878881E-004	6.8093376E+001	2.128545647493515E-007
1.1218996E+002	4.8977383E+002	1.2593074E+003	1.3511970E+003	-6.8747787E+001	5.303086041216739E+001	-1.5466639E-002	1.2342007E-003	1.1265084E+000	9.7849935E-001	1.000000000000000E+000	12	1.3566712E-001	1.0040513E-004	3.507293014689437E-005	0.0000000E+000	-1.0009406E+002	2.6826141E-004	6.8975420E-004	7.4008451E-004	6.8747787E+001	1.738497708878047E-007
1.0003201E+002	5.2029382E+002	1.3829458E+003	1.4775807E+003	-6.9382629E+001	5.379067772827693E+001	-1.5463580E-002	1.2588368E-003	1.1504718E+000	1.0078222E+000	1.000000000000000E+000	12	1.3563231E-001	9.1793503E-005	3.528506138789534E-005	0.0000000E+000	-1.0007802E+002	2.3831215E-004	6.3343602E-004	6.7678199E-004	6.9382629E+001	2.121312410009607E-007
8.9115974E+001	5.5269562E+002	1.5202925E+003	1.6176407E+003	-7.0021484E+001	5.455774917804229E+001	-1.5465762E-002	1.2368693E-003	1.1747283E+000	1.0375942E+000	1.000000000000000E+000	12	1.3560018E-001	8.3825893E-005	3.555832722632891E-005	0.0000000E+000	-1.0006197E+002	2.1121361E-004	5.8098236E-004	6.1818422E-004	7.0021484E+001	2.732658384335711E-007
7.9415527E+001	5.8779480E+002	1.6709473E+003	1.7713180E+003	-7.0619484E+001	5.532220804100507E+001	-1.5466453E-002	1.2343493E-003	1.1993666E+000	1.0672947E+000	1.000000000000000E+000	12	1.3558099E-001	7.6542434E-005	3.580859264316839E-005	0.0000000E+000	-1.0009406E+002	1.8734093E-004	5.3256139E-004	5.6455139E-004	7.0619484E+001	2.502654168394866E-007
7.0838745E+001	6.2428033E+002	1.8370457E+003	1.9402223E+003	-7.1230782E+001	5.607340076999390E+001	-1.5466191E-002	1.2391085E-003	1.2230080E+000	1.0963930E+000	1.000000000000000E+000	12	1.3555887E-001	6.9867703E-005	3.608843891114217E-005	0.0000000E+000	-1.0007802E+002	1.6583515E-004	4.8799679E-004	5.1540486E-004	7.1230782E+001	2.798462679737767E-007
6.3082302E+001	6.6422742E+002	2.0231964E+003	2.1294417E+003	-7.1824684E+001	5.685382683375792E+001	-1.5467422E-002	1.2440726E-003	1.2470233E+000	1.1256909E+000	1.000000000000000E+000	12	1.3554576E-001	6.3653191E-005	3.633646440680605E-005	0.0000000E+000	-1.0005396E+002	1.4648234E-004	4.4617636E-004	4.6960666E-004	7.1824684E+001	2.480254956638772E-007
5.6241817E+001	7.0801489E+002	2.2284712E+003	2.3382405E+003	-7.2374252E+001	5.759834625574877E+001	-1.5460298E-002	1.2482532E-003	1.2698539E+000	1.1534253E+000	1.000000000000000E+000	12	1.3553777E-001	5.7965710E-005	3.663988490355809E-005	0.0000000E+000	-1.0011009E+002	1.2949831E-004	4.0759481E-004	4.2767200E-004	7.2374252E+001	3.034204967520426E-007
5.0144413E+001	7.5392218E+002	2.4553123E+003	2.5684541E+003	-7.2930496E+001	5.835519989169552E+001	-1.5464961E-002	1.2364575E-003	1.2926794E+000	1.1813012E+000	1.000000000000000E+000	12	1.3553020E-001	5.2767227E-005	3.693527502380513E-005	0.0000000E+000	-1.0008604E+002	1.1428336E-004	3.7218863E-004	3.8933926E-004	7.2930496E+001	2.953901202470434E-007
4.4671219E+001	8.0404163E+002	2.7081218E+003	2.8249614E+003	-7.3463844E+001	5.937121388662490E+001	-1.5462872E-002	1.0628899E-003	1.3156008E+000	1.2090255E+000	1.000000000000000E+000	13	1.3584210E-001	4.8086356E-005	3.715819213476910E-005	0.0000000E+000	-1.0011812E+002	1.0075194E-004	3.3934633E-004	3.5398712E-004	7.3463844E+001	2.229171109639663E-007
3.9808922E+001	8.5735162E+002	2.9880833E+003	3.1086482E+003	-7.3990562E+001	6.013373850955395E+001	-1.5461790E-002	1.0629141E-003	1.3379719E+000	1.2362015E+000	1.000000000000000E+000	13	1.3577485E-001	4.3676493E-005	3.744333450748864E-005	0.0000000E+000	-1.0008604E+002	8.8718851E-005	3.0920716E-004	3.2168324E-004	7.3990562E+001	2.851423727195452E-007
3.5465305E+001	9.1543878E+002	3.2993486E+003	3.4239932E+003	-7.4492767E+001	6.088414334514528E+001	-1.5464419E-002	1.0576673E-003	1.3601545E+000	1.2629288E+000	1.000000000000000E+000	13	1.3571475E-001	3.9636398E-005	3.758348426842248E-005	0.0000000E+000	-1.0010207E+002	7.8084267E-005	2.8142481E-004	2.9205665E-004	7.4492767E+001	1.401497609338333E-007
3.1629551E+001	9.7781799E+002	3.6415483E+003	3.7705439E+003	-7.4969643E+001	6.160845812622574E+001	-1.5461381E-002	1.0566203E-003	1.3817868E+000	1.2888583E+000	1.000000000000000E+000	13	1.3567150E-001	3.5981942E-005	3.776283635429182E-005	0.0000000E+000	-1.0009406E+002	6.8778085E-005	2.5614037E-004	2.6521372E-004	7.4969643E+001	1.793520858693430E-007
2.8170074E+001	1.0458658E+003	4.0263967E+003	4.1600127E+003	-7.5439079E+001	6.241377267117787E+001	-1.5461697E-002	1.0599686E-003	1.4031870E+000	1.3144963E+000	1.000000000000000E+000	13	1.3563576E-001	3.2604650E-005	3.804858089792207E-005	0.0000000E+000	-1.0003791E+002	6.0434737E-005	2.3266296E-004	2.4038389E-004	7.5439079E+001	2.857445436302484E-007
2.5104435E+001	1.1199585E+003	4.4518789E+003	4.5905918E+003	-7.5879135E+001	6.316990100042312E+001	-1.5461772E-002	1.0476629E-003	1.4240537E+000	1.3392932E+000	1.000000000000000E+000	13	1.3560660E-001	2.9540113E-005	3.828879985821893E-005	0.0000000E+000	-1.0009406E+002	5.3145257E-005	2.1125450E-004	2.1783683E-004	7.5879135E+001	2.402189602968656E-007
2.2385387E+001	1.1997971E+003	4.9217817E+003	5.0659106E+003	-7.6300041E+001	6.385642593968078E+001	-1.5469809E-002	1.0492830E-003	1.4445519E+000	1.3635241E+000	1.000000000000000E+000	13	1.3558057E-001	2.6763317E-005	3.845468528043643E-005	0.0000000E+000	-1.0009406E+002	4.6751211E-005	1.9178177E-004	1.9739788E-004	7.6300041E+001	1.658854222174946E-007
1.9955299E+001	1.2876906E+003	5.4450957E+003	5.5952852E+003	-7.6694771E+001	6.461820965583320E+001	-1.5466564E-002	1.0487789E-003	1.4647260E+000	1.3871485E+000	1.000000000000000E+000	13	1.3556582E-001	2.4228581E-005	3.871772408170990E-005	0.0000000E+000	-1.0010207E+002	4.1130803E-005	1.7392464E-004	1.7872191E-004	7.6694771E+001	2.630388012734742E-007
1.7796129E+001	1.3821660E+003	6.0248174E+003	6.1813271E+003	-7.7079231E+001	6.546253700260422E+001	-1.5470144E-002	1.0564472E-003	1.4843991E+000	1.4101815E+000	1.000000000000000E+000	13	1.3554709E-001	2.1928476E-005	3.895853821589521E-005	0.0000000E+000	-1.0006197E+002	3.6174017E-005	1.5768138E-004	1.6177756E-004	7.7079231E+001	2.408141341853038E-007
1.5857576E+001	1.4877903E+003	6.6736895E+003	6.8375181E+003	-7.7432350E+001	6.618494743696647E+001	-1.5468671E-002	1.0514105E-003	1.5038943E+000	1.4326904E+000	1.000000000000000E+000	13	1.3553134E-001	1.9821715E-005	3.911126608256968E-005	0.0000000E+000	-1.0006197E+002	3.1823271E-005	1.4274767E-004	1.4625190E-004	7.7432350E+001	1.527278666744723E-007
1.4118974E+001	1.6066348E+003	7.3987178E+003	7.5711494E+003	-7.7748405E+001	6.698726016838918E+001	-1.5468765E-002	1.0517258E-003	1.5235635E+000	1.4549559E+000	1.000000000000000E+000	13	1.3552287E-001	1.7899907E-005	3.934060374998161E-005	0.0000000E+000	-1.0006999E+002	2.8028091E-005	1.2907224E-004	1.3208034E-004	7.7748405E+001	2.293376674119291E-007
1.2600808E+001	1.7333922E+003	8.1895283E+003	8.3709629E+003	-7.8049179E+001	6.787783191737253E+001	-1.5467366E-002	1.0534476E-003	1.5422786E+000	1.4761477E+000	1.000000000000000E+000	13	1.3551423E-001	1.6188607E-005	3.965937350931300E-005	0.0000000E+000	-1.0002989E+002	2.4736944E-005	1.1687135E-004	1.1946057E-004	7.8049179E+001	3.187697593313893E-007
1.1224856E+001	1.8750229E+003	9.0824795E+003	9.2740039E+003	-7.8335503E+001	6.856189869652735E+001	-1.5467199E-002	1.0489709E-003	1.5611150E+000	1.4973013E+000	1.000000000000000E+000	13	1.3550976E-001	1.4611786E-005	3.976350290077683E-005	0.0000000E+000	-1.0006999E+002	2.1800777E-005	1.0560145E-004	1.0782829E-004	7.8335503E+001	1.041293914638361E-007
1.0003201E+001	2.0376387E+003	1.0064384E+004	1.0268583E+004	-7.8554588E+001	6.932270646600955E+001	-1.5466955E-002	1.0502102E-003	1.5808620E+000	1.5186137E+000	1.000000000000000E+000	13	1.3549970E-001	1.3195560E-005	4.006109860317055E-005	0.0000000E+000	-1.0006999E+002	1.9324401E-005	9.5447853E-005	9.7384422E-005	7.8554588E+001	2.975957023937113E-007
8.9183798E+000	2.2162737E+003	1.1162674E+004	1.1380561E+004	-7.8770348E+001	7.016702461274690E+001	-1.5464317E-002	1.0393697E-003	1.5986961E+000	1.5380665E+000	1.000000000000000E+000	13	1.3549726E-001	1.1906027E-005	4.026432269447590E-005	0.0000000E+000	-1.0003791E+002	1.7111812E-005	8.6186839E-005	8.7869135E-005	7.8770348E+001	2.032240913053514E-007
7.9395342E+000	2.4209553E+003	1.2398828E+004	1.2632972E+004	-7.8951622E+001	7.110566425736397E+001	-1.5459487E-002	1.0403757E-003	1.6167560E+000	1.5573804E+000	1.000000000000000E+000	13	1.3549355E-001	1.0725390E-005	4.058077905961191E-005	0.0000000E+000	-1.0007802E+002	1.5169650E-005	7.7690798E-005	7.9157937E-005	7.8951622E+001	3.164563651360177E-007
7.0765405E+000	2.6500996E+003	1.3748987E+004	1.4002060E+004	-7.9090111E+001	7.166402153720264E+001	-1.5465911E-002	1.0442410E-003	1.6357933E+000	1.5771972E+000	1.000000000000000E+000	13	1.3549085E-001	9.6764943E-006	4.075468690417781E-005	0.0000000E+000	-1.0007802E+002	1.3516935E-005	7.0127258E-005	7.1418064E-005	7.9090111E+001	1.739078445659004E-007
6.3105822E+000	2.8979800E+003	1.5284167E+004	1.5556479E+004	-7.9263786E+001	7.228419396662503E+001	-1.5463729E-002	1.0403700E-003	1.6500949E+000	1.5928315E+000	1.000000000000000E+000	13	1.3549277E-001	8.7097324E-006	4.096048887710438E-005	0.0000000E+000	-1.0002187E+002	1.1974923E-005	6.3156658E-005	6.4281900E-005	7.9263786E+001	2.058019729265665E-007
5.6205034E+000	3.1970095E+003	1.6969029E+004	1.7267566E+004	-7.9330391E+001	7.297066090594672E+001	-1.5463226E-002	1.0184502E-003	1.6687372E+000	1.6115347E+000	1.000000000000000E+000	13	1.3548793E-001	7.8463827E-006	4.114973270341852E-005	0.0000000E+000	-1.0006197E+002	1.0722147E-005	5.6910805E-005	5.7912039E-005	7.9330391E+001	1.892438263141410E-007
5.0144415E+000	3.5805496E+003	1.8791205E+004	1.9129289E+004	-7.9211960E+001	7.372818387523876E+001	-1.5445641E-002	1.0191334E-003	1.6890517E+000	1.6298759E+000	1.000000000000000E+000	13	1.3548070E-001	7.0823703E-006	4.129582892237906E-005	0.0000000E+000	-1.0007802E+002	9.7847997E-006	5.1351952E-005	5.2275856E-005	7.9211960E+001	1.460962189605419E-007
4.4693937E+000	3.8684473E+003	2.0848029E+004	2.1203896E+004	-7.9488060E+001	7.456952047513914E+001	-1.5465165E-002	1.0522230E-003	1.7080734E+000	1.6512209E+000	1.000000000000000E+000	13	1.3548739E-001	6.3897405E-006	4.148957173891520E-005	0.0000000E+000	-1.0009406E+002	8.6040991E-006	4.6369631E-005	4.7161142E-005	7.9488060E+001	1.937428165361353E-007
3.9778514E+000	4.3294243E+003	2.3115557E+004	2.3517502E+004	-7.9391701E+001	7.550619267966249E+001	-1.5462210E-002	1.0581593E-003	1.7308810E+000	1.6722205E+000	1.000000000000000E+000	13	1.3548391E-001	5.7609818E-006	4.184486054753223E-005	0.0000000E+000	-1.0002187E+002	7.8279454E-006	4.1794774E-005	4.2521522E-005	7.9391701E+001	3.552888086170354E-007
3.5511365E+000	4.7571040E+003	2.5606318E+004	2.6044453E+004	-7.9475655E+001	7.654737870246754E+001	-1.5459469E-002	1.0347184E-003	1.7502723E+000	1.6918795E+000	1.000000000000000E+000	13	1.3548875E-001	5.2022115E-006	4.218299668678669E-005	0.0000000E+000	-1.0006197E+002	7.0131359E-006	3.7749971E-005	3.8395890E-005	7.9475655E+001	3.381361392544539E-007
3.1603966E+000	5.3304614E+003	2.8392252E+004	2.8888299E+004	-7.9366867E+001	7.770923953098827E+001	-1.5456336E-002	1.0423549E-003	1.7736940E+000	1.7133042E+000	1.000000000000000E+000	13	1.3548002E-001	4.6897885E-006	4.240506969064841E-005	0.0000000E+000	-1.0005396E+002	6.3873522E-006	3.4021694E-005	3.4616092E-005	7.9366867E+001	2.220730038617234E-007
2.8183618E+000	5.9448628E+003	3.1488752E+004	3.2045014E+004	-7.9308784E+001	7.900464273921170E+001	-1.5458729E-002	1.0490204E-003	1.7933619E+000	1.7316412E+000	1.000000000000000E+000	13	1.3548289E-001	4.2278930E-006	4.284458367853671E-005	0.0000000E+000	-1.0002989E+002	5.7892298E-006	3.0664403E-005	3.1206102E-005	7.9308784E+001	4.395139878883027E-007
2.5136740E+000	6.5838955E+003	3.4884168E+004	3.5500039E+004	-7.9311951E+001	8.089466925564921E+001	-1.5454757E-002	1.0188672E-003	1.8150258E+000	1.7525963E+000	1.000000000000000E+000	14	1.3549551E-001	3.8167709E-006	4.341065011388633E-005	0.0000000E+000	-1.0008604E+002	5.2242663E-006	2.7680293E-005	2.8168983E-005	7.9311951E+001	5.660664353496136E-007
2.2398219E+000	7.4242725E+003	3.8658066E+004	3.9364527E+004	-7.9128723E+001	8.250941735898959E+001	-1.5458215E-002	1.0172740E-003	1.8380888E+000	1.7727058E+000	1.000000000000000E+000	14	1.3549553E-001	3.4420718E-006	4.374660267495073E-005	0.0000000E+000	-1.0006197E+002	4.7911958E-006	2.4947674E-005	2.5403582E-005	7.9128723E+001	3.359525610644059E-007
1.9970604E+000	8.3392539E+003	4.2904648E+004	4.3707574E+004	-7.9000725E+001	8.431367627137661E+001	-1.5458009E-002	1.0210378E-003	1.8574818E+000	1.7898632E+000	1.000000000000000E+000	14	1.3549134E-001	3.0999511E-006	4.432274915001704E-005	0.0000000E+000	-1.0010207E+002	4.3652981E-006	2.2459028E-005	2.2879331E-005	7.9000725E+001	5.761464750663045E-007
1.7796129E+000	9.2764268E+003	4.7488938E+004	4.8386477E+004	-7.8947098E+001	8.633183636722970E+001	-1.5455843E-002	1.0115067E-003	1.8832247E+000	1.8140073E+000	1.000000000000000E+000	14	1.3548967E-001	2.8001557E-006	4.490122940116857E-005	0.0000000E+000	-1.0006197E+002	3.9621664E-006	2.0283573E-005	2.0666932E-005	7.8947098E+001	5.784802511515301E-007
1.5846854E+000	1.0416948E+004	5.2656816E+004	5.3677305E+004	-7.8809822E+001	8.859101172783994E+001	-1.5454952E-002	1.0148697E-003	1.9073153E+000	1.8354826E+000	1.000000000000000E+000	14	1.3549012E-001	2.5241602E-006	4.545586865226930E-005	0.0000000E+000	-1.0008604E+002	3.6154233E-006	1.8275665E-005	1.8629848E-005	7.8809822E+001	5.546392511007316E-007
1.4122382E+000	1.1744017E+004	5.8235055E+004	5.9407438E+004	-7.8598328E+001	9.112010600793292E+001	-1.5453598E-002	1.0062453E-003	1.9352080E+000	1.8595805E+000	1.000000000000000E+000	14	1.3548678E-001	2.2806366E-006	4.628890004968760E-005	0.0000000E+000	-1.0007802E+002	3.3276299E-006	1.6500719E-005	1.6832910E-005	7.8598328E+001	8.330313974182994E-007
1.2596743E+000	1.3266946E+004	6.4364168E+004	6.5717258E+004	-7.8353127E+001	9.394706718224916E+001	-1.5462091E-002	1.0098014E-003	1.9629881E+000	1.8829862E+000	1.000000000000000E+000	14	1.3548385E-001	2.0616174E-006	4.693748692821403E-005	0.0000000E+000	-1.0004594E+002	3.0719364E-006	1.4903398E-005	1.5216703E-005	7.8353127E+001	6.485868785264327E-007
1.1224856E+000	1.4926459E+004	7.1110016E+004	7.2659711E+004	-7.8145348E+001	9.711502789272345E+001	-1.5461212E-002	1.0283526E-003	1.9939238E+000	1.9097775E+000	1.000000000000000E+000	14	1.3548434E-001	1.8646419E-006	4.797311204037901E-005	0.0000000E+000	-1.0011009E+002	2.8272843E-006	1.3469251E-005	1.3762785E-005	7.8145348E+001	1.035625112164979E-006
1.0000638E+000	1.6974133E+004	7.8727227E+004	8.0536313E+004	-7.7832886E+001	1.006641756879690E+002	-1.5455542E-002	1.0171831E-003	2.0214710E+000	1.9316744E+000	1.000000000000000E+000	14	1.3548635E-001	1.6823013E-006	4.886195537655627E-005	0.0000000E+000	-1.0005396E+002	2.6170028E-006	1.2137842E-005	1.2416759E-005	7.7832886E+001	8.888433361772615E-007