EC-Lab ASCII FILE
Nb header lines : 75                          

Potentio Electrochemical Impedance Spectroscopy

Run on channel : 1 (SN 20909)
User : 
CE vs. WE compliance from -10 V to 10 V
Electrode connection : standard
Ewe ctrl range : min = -10.00 V, max = 10.00 V
Safety Limits :
	Do not start on E overload
Acquisition started on : 01/22/2020 09:36:56
Technique started on : 01/22/2020 09:36:57
Saved on :
	File : DE_49_1_30.mpr
	Directory : P:\Chemistry\Data\VMP3\Kyler\DOE\DE_49\30C\
	Host : 10.0.4.99
Device : VMP3 (SN 0183)
Address : USB
EC-Lab for windows v11.33 (software)
Internet server v11.32 (firmware)
Command interpretor v11.33 (firmware)
Electrode material : 
Initial state : 
Electrolyte : 
Comments : 
Electrode surface area : 0.001 cm²
Characteristic mass : 0.001 g
Equivalent Weight : 0.000 g/eq.
Density : 0.000 g/cm3
Record Analogic IN 1
Cycle Definition : Charge/Discharge alternance
External device configuration :
   device type : Thermostat
   device name : Other
   Analog OUT : 
      mode : E/V
      unit : T/°C
      max : 400.000 at 5.000 V
      min : -100.000 at 0.000 V
      current : 0.000
   Analog IN 1 : 
      unit : T/°C
      max : 400.000 at 5.000 V
      min : -100.000 at 0.000 V
Mode                Single sine         
E (V)               0.0000              
vs.                 Eoc                 
tE (h:m:s)          0:00:0.0000         
record              0                   
dI                  1.000               
unit dI             mA                  
dt (s)              0.000               
fi                  1.000               
unit fi             MHz                 
ff                  1.000               
unit ff             Hz                  
Nd                  20                  
Points              per decade          
spacing             Logarithmic         
Va (mV)             128.0               
pw                  0.50                
Na                  3                   
corr                0                   
E range min (V)     -10.000             
E range max (V)     10.000              
I Range             Auto                
Bandwidth           5                   
nc cycles           0                   
goto Ns'            0                   
nr cycles           0                   
inc. cycle          1                   

freq/Hz	Re(Z)/Ohm	-Im(Z)/Ohm	|Z|/Ohm	Phase(Z)/deg	time/s	<Ewe>/V	<I>/mA	Cs/µF	Cp/µF	cycle number	I Range	|Ewe|/V	|I|/A	(Q-Qo)/mA.h	Analog OUT/V	Analog IN 1/V	Re(Y)/Ohm-1	Im(Y)/Ohm-1	|Y|/Ohm-1	Phase(Y)/deg	dq/mA.h	
1.0000186E+006	2.2185904E+001	1.6881094E+002	1.7026259E+002	-8.2512840E+001	1.951478385977680E+000	-4.5575923E-003	3.1681899E-003	9.4278238E-004	9.2677475E-004	1.000000000000000E+000	11	5.0348234E-003	2.9570932E-005	7.738996258728245E-007	0.0000000E+000	-1.0006999E+002	7.6531200E-004	5.8232062E-003	5.8732810E-003	8.2512840E+001	7.738996258728245E-007
8.9124669E+005	2.7987741E+001	1.8386269E+002	1.8598065E+002	-8.1344826E+001	2.547485960967606E+000	-4.0291171E-003	3.1769616E-003	9.7124453E-004	9.4924931E-004	1.000000000000000E+000	11	8.2109002E-003	4.4149216E-005	1.195873803201620E-006	0.0000000E+000	-1.0007802E+002	8.0915628E-004	5.3156707E-003	5.3769033E-003	8.1344826E+001	4.219741773287954E-007
7.9433269E+005	3.3548794E+001	2.0223294E+002	2.0499680E+002	-8.0580879E+001	3.143483002641005E+000	-3.6002204E-003	3.1721101E-003	9.9075388E-004	9.6421846E-004	1.000000000000000E+000	11	1.2796682E-002	6.2423816E-005	1.824972727679172E-006	0.0000000E+000	-1.0010207E+002	7.9833053E-004	4.8123566E-003	4.8781252E-003	8.0580879E+001	6.290989244775523E-007
7.0794981E+005	3.8847637E+001	2.2304857E+002	2.2640628E+002	-8.0120087E+001	3.738482364191441E+000	-3.1970015E-003	3.1338516E-003	1.0079017E-003	9.7822817E-004	1.000000000000000E+000	11	1.8829817E-002	8.3168263E-005	2.332965523843692E-006	0.0000000E+000	-1.0005396E+002	7.5785769E-004	4.3513351E-003	4.4168388E-003	8.0120087E+001	5.079927961645200E-007
6.3095681E+005	4.5023197E+001	2.4691171E+002	2.5098303E+002	-7.9665916E+001	4.334496525843861E+000	-2.7678995E-003	3.2228751E-003	1.0215951E-003	9.8872033E-004	1.000000000000000E+000	11	2.6189784E-002	1.0434882E-004	2.818783532984930E-006	0.0000000E+000	-1.0009406E+002	7.1473944E-004	3.9197011E-003	3.9843330E-003	7.9665916E+001	4.858180091412377E-007
5.6234225E+005	5.0890507E+001	2.7381400E+002	2.7850305E+002	-7.9471260E+001	4.929488687455887E+000	-2.4161667E-003	3.1997333E-003	1.0336268E-003	9.9911424E-004	1.000000000000000E+000	11	3.4645047E-002	1.2439737E-004	3.518981097937891E-006	0.0000000E+000	-1.0006197E+002	6.5611029E-004	3.5301710E-003	3.5906250E-003	7.9471260E+001	7.001975649529613E-007
5.0120619E+005	5.7475136E+001	3.0367392E+002	3.0906509E+002	-7.9282631E+001	5.526489515817957E+000	-2.1197058E-003	3.2839044E-003	1.0456739E-003	1.0095115E-003	1.000000000000000E+000	11	4.3997183E-002	1.4235571E-004	4.012214896248123E-006	0.0000000E+000	-1.0008604E+002	6.0170004E-004	3.1791246E-003	3.2355643E-003	7.9282631E+001	4.932337983102319E-007
4.4668572E+005	6.4709000E+001	3.3683768E+002	3.4299692E+002	-7.9125542E+001	6.121471597376512E+000	-1.8903207E-003	3.2114920E-003	1.0577849E-003	1.0201365E-003	1.000000000000000E+000	11	5.4141846E-002	1.5784937E-004	4.743752793835786E-006	0.0000000E+000	-1.0006999E+002	5.5002735E-004	2.8631245E-003	2.9154781E-003	7.9125542E+001	7.315378975876632E-007
3.9810347E+005	7.2733688E+001	3.7318082E+002	3.8020273E+002	-7.8971199E+001	6.717474265693454E+000	-1.7335118E-003	3.3021960E-003	1.0712846E-003	1.0320792E-003	1.000000000000000E+000	11	6.5081239E-002	1.7117510E-004	4.964473572024467E-006	0.0000000E+000	-1.0003791E+002	5.0315895E-004	2.5815994E-003	2.6301758E-003	7.8971199E+001	2.207207781886809E-007
3.5480997E+005	8.1933693E+001	4.1338315E+002	4.2142468E+002	-7.8789116E+001	7.312473227299051E+000	-1.6189214E-003	3.2114922E-003	1.0851044E-003	1.0440882E-003	1.000000000000000E+000	11	7.6925576E-002	1.8253695E-004	5.567014753800726E-006	0.0000000E+000	-1.0010207E+002	4.6134149E-004	2.3276240E-003	2.3729033E-003	7.8789116E+001	6.025411817762590E-007
3.1622997E+005	9.2188278E+001	4.5729156E+002	4.6649142E+002	-7.8602150E+001	7.907475815532962E+000	-1.5576450E-003	3.2449001E-003	1.1005858E-003	1.0576037E-003	1.000000000000000E+000	11	8.9773856E-002	1.9244482E-004	5.971358804135687E-006	0.0000000E+000	-1.0008604E+002	4.2363172E-004	2.1013862E-003	2.1436622E-003	7.8602150E+001	4.043440503349609E-007
2.8183453E+005	1.0357964E+002	5.0561032E+002	5.1611096E+002	-7.8422539E+001	8.504486350604566E+000	-1.5017578E-003	3.2322092E-003	1.1168889E-003	1.0719035E-003	1.000000000000000E+000	11	1.0370824E-001	2.0094175E-004	6.775238671124195E-006	0.0000000E+000	-1.0006999E+002	3.8885546E-004	1.8981466E-003	1.9375678E-003	7.8422539E+001	8.038798669885074E-007
2.5118764E+005	1.4518829E+002	5.8159863E+002	5.9944690E+002	-7.5983353E+001	9.266484306746861E+000	-1.5591379E-003	1.2621962E-003	1.0894279E-003	1.0255192E-003	1.000000000000000E+000	12	5.1242303E-002	8.5482636E-005	7.179216149501170E-006	0.0000000E+000	-1.0004594E+002	4.0404545E-004	1.6185343E-003	1.6682044E-003	7.5983353E+001	4.039774783769751E-007
2.2387173E+005	1.5976178E+002	6.4032953E+002	6.5995886E+002	-7.5990761E+001	9.862495961744571E+000	-1.5000992E-003	1.2333794E-003	1.1102412E-003	1.0451790E-003	1.000000000000000E+000	12	6.2932990E-002	9.5358962E-005	7.581770387646934E-006	0.0000000E+000	-1.0008604E+002	3.6680826E-004	1.4701776E-003	1.5152460E-003	7.5990761E+001	4.025542381457646E-007
1.9954350E+005	1.7527873E+002	7.0430280E+002	7.2578583E+002	-7.6024796E+001	1.045948628344922E+001	-1.4798284E-003	1.2532192E-003	1.1324607E-003	1.0664120E-003	1.000000000000000E+000	12	7.7065244E-002	1.0618180E-004	7.823901408682004E-006	0.0000000E+000	-1.0009406E+002	3.3274549E-004	1.3370339E-003	1.3778169E-003	7.6024796E+001	2.421310210350692E-007
1.7783180E+005	1.9203833E+002	7.7519629E+002	7.9862885E+002	-7.6086304E+001	1.105548892510706E+001	-1.4441925E-003	1.2662094E-003	1.1545136E-003	1.0877583E-003	1.000000000000000E+000	12	9.4156973E-002	1.1789829E-004	8.009923023886384E-006	0.0000000E+000	-1.0010207E+002	3.0109115E-004	1.2154069E-003	1.2521461E-003	7.6086304E+001	1.860216152043803E-007
1.5848613E+005	2.1012260E+002	8.5310822E+002	8.7860406E+002	-7.6163322E+001	1.165048228667001E+001	-1.4313440E-003	1.2174414E-003	1.1771308E-003	1.1098048E-003	1.000000000000000E+000	12	1.1466962E-001	1.3051342E-004	8.016046241743930E-006	0.0000000E+000	-1.0007802E+002	2.7219890E-004	1.1051410E-003	1.1381691E-003	7.6163322E+001	6.123217857545977E-009
1.4125594E+005	2.2935997E+002	9.3919037E+002	9.6679083E+002	-7.6276390E+001	1.211047652186244E+001	-1.4172078E-003	1.2387186E-003	1.1996644E-003	1.1321448E-003	1.000000000000000E+000	12	1.3914159E-001	1.4392109E-004	8.281684963047156E-006	0.0000000E+000	-1.0006197E+002	2.4538758E-004	1.0048207E-003	1.0343499E-003	7.6276390E+001	2.656387213032257E-007
1.2590930E+005	2.5009030E+002	1.0344991E+003	1.0642996E+003	-7.6409492E+001	1.270747684352682E+001	-1.2955695E-003	1.2309904E-003	1.2218902E-003	1.1544223E-003	1.000000000000000E+000	12	1.3150802E-001	1.2356298E-004	8.450990461813895E-006	0.0000000E+000	-1.0005396E+002	2.2078471E-004	9.1327669E-004	9.3958509E-004	7.6409492E+001	1.693054987667389E-007
1.1220494E+005	2.7210831E+002	1.1400482E+003	1.1720720E+003	-7.6575722E+001	1.330348956517992E+001	-1.2013427E-003	1.2462576E-003	1.2441849E-003	1.1771255E-003	1.000000000000000E+000	12	1.3114220E-001	1.1188920E-004	8.583215746814757E-006	0.0000000E+000	-1.0011812E+002	1.9807664E-004	8.2987873E-004	8.5318991E-004	7.6575722E+001	1.322252850008626E-007
1.0000371E+005	2.9565250E+002	1.2568124E+003	1.2911188E+003	-7.6762421E+001	1.389949380684993E+001	-1.1927462E-003	1.2487398E-003	1.2662911E-003	1.1998917E-003	1.000000000000000E+000	12	1.3083619E-001	1.0133552E-004	8.802450586514573E-006	0.0000000E+000	-1.0006999E+002	1.7735733E-004	7.5394218E-004	7.7452208E-004	7.6762421E+001	2.192348396998163E-007
8.9129305E+004	3.2113315E+002	1.3862540E+003	1.4229641E+003	-7.6957191E+001	1.449447703509941E+001	-1.1681500E-003	1.2314009E-003	1.2881214E-003	1.2225159E-003	1.000000000000000E+000	12	1.3056666E-001	9.1756818E-005	9.128431842215327E-006	0.0000000E+000	-1.0004594E+002	1.5859782E-004	6.8462850E-004	7.0275844E-004	7.6957191E+001	3.259812557007540E-007
7.9433273E+004	3.4819089E+002	1.5298667E+003	1.5689897E+003	-7.7178146E+001	1.509048293004162E+001	-1.1379034E-003	1.2083694E-003	1.3096767E-003	1.2451769E-003	1.000000000000000E+000	12	1.3029304E-001	8.3042636E-005	9.318399649226598E-006	0.0000000E+000	-1.0010207E+002	1.4144160E-004	6.2146026E-004	6.3735282E-004	7.7178146E+001	1.899678070112703E-007
7.0794977E+004	3.7759772E+002	1.6892917E+003	1.7309785E+003	-7.7400124E+001	1.568549797168816E+001	-1.1132885E-003	1.2635769E-003	1.3308007E-003	1.2674738E-003	1.000000000000000E+000	12	1.2996840E-001	7.5083779E-005	9.581407742306207E-006	0.0000000E+000	-1.0007802E+002	1.2602187E-004	5.6379515E-004	5.7770795E-004	7.7400124E+001	2.630080930796095E-007
6.3093828E+004	4.0934860E+002	1.8668021E+003	1.9111558E+003	-7.7632050E+001	1.628148893328034E+001	-1.0951443E-003	1.2505307E-003	1.3512477E-003	1.2892566E-003	1.000000000000000E+000	12	1.2957169E-001	6.7797555E-005	9.785059588952410E-006	0.0000000E+000	-1.0009406E+002	1.1207300E-004	5.1110028E-004	5.2324357E-004	7.7632050E+001	2.036518466462026E-007
5.6237012E+004	4.4383237E+002	2.0632551E+003	2.1104524E+003	-7.7859947E+001	1.674149047516403E+001	-1.0995819E-003	1.2265663E-003	1.3716553E-003	1.3109910E-003	1.000000000000000E+000	12	1.4062953E-001	6.6634777E-005	9.922187985092024E-006	0.0000000E+000	-1.0005396E+002	9.9647848E-005	4.6323551E-004	4.7383207E-004	7.7859947E+001	1.371283961396139E-007
5.0122477E+004	4.8094919E+002	2.2823086E+003	2.3324331E+003	-7.8100204E+001	1.733749551678193E+001	-1.0769628E-003	1.2390707E-003	1.3912759E-003	1.3321207E-003	1.000000000000000E+000	12	1.3017319E-001	5.5810040E-005	1.013363696334010E-005	0.0000000E+000	-1.0007802E+002	8.8405839E-005	4.1952319E-004	4.2873685E-004	7.8100204E+001	2.114489782480720E-007
4.4666715E+004	5.2208661E+002	2.5257695E+003	2.5791638E+003	-7.8321213E+001	1.779749161863583E+001	-1.0799461E-003	1.2353751E-003	1.4107251E-003	1.3529196E-003	1.000000000000000E+000	12	1.3603264E-001	5.2742926E-005	1.024549420375236E-005	0.0000000E+000	-1.0009406E+002	7.8484642E-005	3.7969588E-004	3.8772257E-004	7.8321213E+001	1.118572404122675E-007
3.9814063E+004	5.6581793E+002	2.7959231E+003	2.8526016E+003	-7.8559425E+001	1.825749113384518E+001	-1.0873491E-003	1.2408996E-003	1.4297445E-003	1.3734936E-003	1.000000000000000E+000	12	1.4017791E-001	4.9140373E-005	1.042631997370780E-005	0.0000000E+000	-1.0006999E+002	6.9533533E-005	3.4359194E-004	3.5055718E-004	7.8559425E+001	1.808257699554411E-007
3.5480996E+004	6.1610712E+002	3.0967712E+003	3.1574641E+003	-7.8747849E+001	1.885247852207976E+001	-1.0736994E-003	1.2299811E-003	1.4484890E-003	1.3933384E-003	1.000000000000000E+000	12	1.2950787E-001	4.1016418E-005	1.058006751417356E-005	0.0000000E+000	-1.0008604E+002	6.1798695E-005	3.1062204E-004	3.1670986E-004	7.8747849E+001	1.537475404657521E-007
3.1621143E+004	6.7035309E+002	3.4327000E+003	3.4975422E+003	-7.8950089E+001	1.931248974395567E+001	-1.0789022E-003	1.2188011E-003	1.4662456E-003	1.4123829E-003	1.000000000000000E+000	12	1.3109168E-001	3.7481088E-005	1.070408842322786E-005	0.0000000E+000	-1.0008604E+002	5.4799635E-005	2.8061436E-004	2.8591507E-004	7.8950089E+001	1.240209090543028E-007
2.8188096E+004	7.3124585E+002	3.8052146E+003	3.8748391E+003	-7.9122116E+001	1.977248523247545E+001	-1.0855219E-003	1.2431202E-003	1.4837995E-003	1.4309557E-003	1.000000000000000E+000	12	1.3202441E-001	3.4072229E-005	1.087604399104887E-005	0.0000000E+000	-1.0008604E+002	4.8703027E-005	2.5343802E-004	2.5807522E-004	7.9122116E+001	1.719555678210126E-007
2.5116910E+004	7.9910803E+002	4.2188101E+003	4.2938247E+003	-7.9274361E+001	2.023248298760154E+001	-1.0786596E-003	1.2288794E-003	1.5019793E-003	1.4499575E-003	1.000000000000000E+000	12	1.3253182E-001	3.0865682E-005	1.105070525112003E-005	0.0000000E+000	-1.0004594E+002	4.3342781E-005	2.2882388E-004	2.3289261E-004	7.9274361E+001	1.746612600711599E-007
2.2389027E+004	1.0812998E+003	4.7174512E+003	4.8397886E+003	-7.7090088E+001	2.099349731710390E+001	-1.0460076E-003	9.9045946E-004	1.5068760E-003	1.4316589E-003	1.000000000000000E+000	13	1.3119924E-001	2.7108465E-005	1.117586743945483E-005	0.0000000E+000	-1.0012614E+002	4.6162913E-005	2.0139775E-004	2.0662059E-004	7.7090088E+001	1.251621883347988E-007
1.9948783E+004	1.1692485E+003	5.2257397E+003	5.3549507E+003	-7.7387917E+001	2.158947566544521E+001	-1.0453364E-003	9.8931510E-004	1.5267079E-003	1.4539202E-003	1.000000000000000E+000	13	1.2942585E-001	2.4169383E-005	1.139051797017146E-005	0.0000000E+000	-1.0006197E+002	4.0775176E-005	1.8223711E-004	1.8674308E-004	7.7387917E+001	2.146505307166277E-007
1.7786895E+004	1.2649764E+003	5.7882583E+003	5.9248711E+003	-7.7672295E+001	2.204847448723740E+001	-1.0459888E-003	9.8566047E-004	1.5458668E-003	1.4754011E-003	1.000000000000000E+000	13	1.3302092E-001	2.2451277E-005	1.150570582377329E-005	0.0000000E+000	-1.0006999E+002	3.6035013E-005	1.6488839E-004	1.6878004E-004	7.7672295E+001	1.151878536018365E-007
1.5847686E+004	1.3762731E+003	6.4195249E+003	6.5653960E+003	-7.7899605E+001	2.250747552237590E+001	-1.0404505E-003	9.8404789E-004	1.5644130E-003	1.4956684E-003	1.000000000000000E+000	13	1.3163337E-001	2.0049571E-005	1.164494987538794E-005	0.0000000E+000	-1.0008604E+002	3.1928812E-005	1.4892960E-004	1.5231373E-004	7.7899605E+001	1.392440516146445E-007
1.4121879E+004	1.5014697E+003	7.1204888E+003	7.2770718E+003	-7.8092705E+001	2.296649685080047E+001	-1.0423342E-003	9.8717783E-004	1.5827700E-003	1.5153890E-003	1.000000000000000E+000	13	1.2775227E-001	1.7555451E-005	1.175739174303655E-005	0.0000000E+000	-1.0006999E+002	2.8353270E-005	1.3446105E-004	1.3741791E-004	7.8092705E+001	1.124418676486141E-007
1.2590932E+004	1.6445291E+003	7.8967603E+003	8.0661826E+003	-7.8236084E+001	2.342648932602606E+001	-1.0508567E-003	9.9639827E-004	1.6007123E-003	1.5341758E-003	1.000000000000000E+000	13	1.2321071E-001	1.5274971E-005	1.189515238827254E-005	0.0000000E+000	-1.0008604E+002	2.5275840E-005	1.2137042E-004	1.2397439E-004	7.8236084E+001	1.377606452359834E-007
1.1217711E+004	1.8078767E+003	8.7676787E+003	8.9521289E+003	-7.8349022E+001	2.388549601446721E+001	-1.0444233E-003	9.9827396E-004	1.6181966E-003	1.5522008E-003	1.000000000000000E+000	13	1.1885843E-001	1.3277114E-005	1.203396447369839E-005	0.0000000E+000	-1.0007802E+002	2.2558814E-005	1.0940369E-004	1.1170527E-004	7.8349022E+001	1.388120854258483E-007
1.0002229E+004	1.9954058E+003	9.7280518E+003	9.9305908E+003	-7.8408348E+001	2.448048004272277E+001	-1.0505766E-003	9.9970354E-004	1.6356766E-003	1.5696362E-003	1.000000000000000E+000	13	1.2675712E-001	1.2764307E-005	1.220039267436207E-005	0.0000000E+000	-1.0011812E+002	2.0233962E-005	9.8645141E-005	1.0069894E-004	7.8408348E+001	1.664282006636813E-007
8.9149297E+003	2.2157034E+003	1.0795501E+004	1.1020534E+004	-7.8401505E+001	2.496290523902280E+001	-1.0501294E-003	1.0066580E-003	1.6537103E-003	1.5868640E-003	1.000000000000000E+000	13	1.2328213E-001	1.1186584E-005	1.232701840108166E-005	0.0000000E+000	-1.0006999E+002	1.8243418E-005	8.8886845E-005	9.0739704E-005	7.8401505E+001	1.266257267195927E-007
7.9439976E+003	2.4712571E+003	1.1984384E+004	1.2236526E+004	-7.8348557E+001	2.548899657066795E+001	-1.0548101E-003	1.0182711E-003	1.6717269E-003	1.6035424E-003	1.000000000000000E+000	13	1.2043781E-001	9.8424835E-006	1.248318322516687E-005	0.0000000E+000	-1.0009406E+002	1.6504468E-005	8.0038590E-005	8.1722537E-005	7.8348557E+001	1.561648240852070E-007
7.0822334E+003	2.7733616E+003	1.3294314E+004	1.3580513E+004	-7.8216377E+001	2.606586782474187E+001	-1.0377475E-003	1.0153706E-003	1.6903784E-003	1.6198825E-003	1.000000000000000E+000	13	1.1813900E-001	8.6991558E-006	1.263922690887034E-005	0.0000000E+000	-1.0010207E+002	1.5037448E-005	7.2083130E-005	7.3634925E-005	7.8216377E+001	1.560436837034761E-007
6.3077344E+003	3.1244050E+003	1.4764580E+004	1.5091545E+004	-7.8051628E+001	2.670053966817795E+001	-1.0287034E-003	1.0158092E-003	1.7089352E-003	1.6356879E-003	1.000000000000000E+000	13	1.1628950E-001	7.7056056E-006	1.282023789585965E-005	0.0000000E+000	-1.0004594E+002	1.3718292E-005	6.4826665E-005	6.6262270E-005	7.8051628E+001	1.810109869893102E-007
5.6210552E+003	3.5313628E+003	1.6376124E+004	1.6752551E+004	-7.7831024E+001	2.760528115116176E+001	-1.0077243E-003	1.0265769E-003	1.7289846E-003	1.6521577E-003	1.000000000000000E+000	13	1.2658136E-001	7.5559456E-006	1.308442078056593E-005	0.0000000E+000	-1.0006197E+002	1.2582891E-005	5.8351125E-005	5.9692404E-005	7.7831024E+001	2.641828847062782E-007
5.0116035E+003	4.0171240E+003	1.8148697E+004	1.8587967E+004	-7.7519096E+001	2.836569542731741E+001	-9.9422352E-004	1.0363888E-003	1.7498385E-003	1.6681115E-003	1.000000000000000E+000	13	1.2527126E-001	6.7393739E-006	1.330380954148101E-005	0.0000000E+000	-1.0007802E+002	1.1626566E-005	5.2526892E-005	5.3798245E-005	7.7519096E+001	2.193887609150809E-007
4.4664292E+003	4.5906279E+003	2.0109150E+004	2.0626482E+004	-7.7140564E+001	2.912568298341648E+001	-9.8872255E-004	1.0269912E-003	1.7720092E-003	1.6842365E-003	1.000000000000000E+000	13	1.2422087E-001	6.0223970E-006	1.352094607956749E-005	0.0000000E+000	-1.0002187E+002	1.0790010E-005	4.7265403E-005	4.8481365E-005	7.7140564E+001	2.171365380864789E-007
3.9812742E+003	5.2507798E+003	2.2263707E+004	2.2874514E+004	-7.6729584E+001	2.988568781951471E+001	-9.9101628E-004	1.0236893E-003	1.7955626E-003	1.7009509E-003	1.000000000000000E+000	13	1.2338991E-001	5.3942090E-006	1.373323532019266E-005	0.0000000E+000	-1.0006197E+002	1.0035064E-005	4.2549429E-005	4.3716776E-005	7.6729584E+001	2.122892406251700E-007
3.5465955E+003	6.0417910E+003	2.4634529E+004	2.5364607E+004	-7.6219810E+001	3.064595265561366E+001	-9.9750573E-004	1.0237454E-003	1.8216469E-003	1.7182900E-003	1.000000000000000E+000	13	1.2270653E-001	4.8377069E-006	1.394873243893421E-005	0.0000000E+000	-1.0006999E+002	9.3909457E-006	3.8290229E-005	3.9425013E-005	7.6219810E+001	2.154971187415458E-007
3.1610112E+003	6.9702607E+003	2.7225096E+004	2.8103209E+004	-7.5639404E+001	3.140567207837739E+001	-9.9385076E-004	1.0254140E-003	1.8493738E-003	1.7356082E-003	1.000000000000000E+000	13	1.2217384E-001	4.3473269E-006	1.416362823993884E-005	0.0000000E+000	-1.0005396E+002	8.8254583E-006	3.4471293E-005	3.5583125E-005	7.5639404E+001	2.148958010046347E-007
2.8172952E+003	8.0574580E+003	3.0053240E+004	3.1114625E+004	-7.4991608E+001	3.216592715447769E+001	-9.9150115E-004	1.0197996E-003	1.8797345E-003	1.7536783E-003	1.000000000000000E+000	13	1.2174389E-001	3.9127544E-006	1.437443000075238E-005	0.0000000E+000	-1.0006197E+002	8.3227906E-006	3.1042888E-005	3.2139225E-005	7.4991608E+001	2.108017608135372E-007
2.5108032E+003	9.3345137E+003	3.3094355E+004	3.4385602E+004	-7.4248497E+001	3.292569636390544E+001	-9.9019590E-004	1.0062435E-003	1.9153737E-003	1.7742227E-003	1.000000000000000E+000	13	1.2139679E-001	3.5304540E-006	1.458820438862740E-005	0.0000000E+000	-1.0002989E+002	7.8947496E-006	2.7989860E-005	2.9081941E-005	7.4248497E+001	2.137743878750180E-007
2.2378516E+003	1.2711711E+004	3.6374840E+004	3.8532020E+004	-7.0737297E+001	3.393692265191930E+001	-9.9582656E-004	9.7865530E-004	1.9551846E-003	1.7423942E-003	1.000000000000000E+000	14	1.3040875E-001	3.3844256E-006	1.485550207502795E-005	0.0000000E+000	-1.0011009E+002	8.5617094E-006	2.4499519E-005	2.5952442E-005	7.0737297E+001	2.672976864005503E-007
1.9956389E+003	1.4443246E+004	3.9864520E+004	4.2400320E+004	-7.0084129E+001	3.469669036802952E+001	-9.9815789E-004	9.7403285E-004	2.0005603E-003	1.7684242E-003	1.000000000000000E+000	14	1.2852591E-001	3.0312488E-006	1.506020703684160E-005	0.0000000E+000	-1.0006197E+002	8.0339014E-006	2.2174214E-005	2.3584727E-005	7.0084129E+001	2.047049618136544E-007
1.7782927E+003	1.6394617E+004	4.3622387E+004	4.6601461E+004	-6.9402252E+001	3.545696192412288E+001	-9.9964987E-004	9.7482331E-004	2.0516699E-003	1.7977415E-003	1.000000000000000E+000	14	1.2697425E-001	2.7246840E-006	1.526318928264552E-005	0.0000000E+000	-1.0008604E+002	7.5492235E-006	2.0086782E-005	2.1458554E-005	6.9402252E+001	2.029822458039218E-007
1.5855076E+003	1.8663082E+004	4.7602184E+004	5.1130016E+004	-6.8591660E+001	3.621667598689237E+001	-1.0091417E-003	9.6537266E-004	2.1087492E-003	1.8277923E-003	1.000000000000000E+000	14	1.2568238E-001	2.4580941E-006	1.546894857409421E-005	0.0000000E+000	-1.0007802E+002	7.1389045E-006	1.8208535E-005	1.9557983E-005	6.8591660E+001	2.057592914486840E-007
1.4118373E+003	2.1303859E+004	5.1907184E+004	5.6108914E+004	-6.7685669E+001	3.697821052969084E+001	-1.0072209E-003	9.7157119E-004	2.1717411E-003	1.8586570E-003	1.000000000000000E+000	14	1.2461860E-001	2.2210124E-006	1.567174835473902E-005	0.0000000E+000	-1.0005396E+002	6.7669739E-006	1.6487840E-005	1.7822480E-005	6.7685669E+001	2.027997806448102E-007
1.2587914E+003	2.4250354E+004	5.6368020E+004	6.1363125E+004	-6.6721909E+001	3.773795832580072E+001	-9.9771074E-004	9.7085850E-004	2.2430222E-003	1.8927106E-003	1.000000000000000E+000	14	1.2375614E-001	2.0167836E-006	1.587685893324690E-005	0.0000000E+000	-1.0005396E+002	6.4402566E-006	1.4969863E-005	1.6296432E-005	6.6721909E+001	2.051105785078801E-007
1.1217948E+003	2.7576736E+004	6.1072883E+004	6.7010250E+004	-6.5699013E+001	3.849643548179301E+001	-1.0049087E-003	9.7434176E-004	2.3230484E-003	1.9296238E-003	1.000000000000000E+000	14	1.2306391E-001	1.8364939E-006	1.607986343250473E-005	0.0000000E+000	-1.0006999E+002	6.1413002E-006	1.3600848E-005	1.4923090E-005	6.5699013E+001	2.030044992578334E-007
1.0003201E+003	3.1278451E+004	6.5937383E+004	7.2980000E+004	-6.4621933E+001	3.925569357123459E+001	-1.0072771E-003	9.8132307E-004	2.4129564E-003	1.9697230E-003	1.000000000000000E+000	14	1.2249110E-001	1.6784201E-006	1.628393094607701E-005	0.0000000E+000	-1.0004594E+002	5.8726955E-006	1.2380096E-005	1.3702384E-005	6.4621933E+001	2.040675135722780E-007
8.9142657E+002	3.5426777E+004	7.1011922E+004	7.9358359E+004	-6.3486084E+001	4.001443438054412E+001	-1.0052258E-003	9.7712467E-004	2.5142201E-003	2.0131699E-003	1.000000000000000E+000	14	1.2203256E-001	1.5377404E-006	1.648863627017434E-005	0.0000000E+000	-1.0006197E+002	5.6253075E-006	1.1275763E-005	1.2601067E-005	6.3486084E+001	2.047053240973285E-007
7.9423773E+002	3.9934887E+004	7.6237063E+004	8.6063258E+004	-6.2353321E+001	4.077395057666581E+001	-9.9756173E-004	9.8168582E-004	2.6284726E-003	2.0625298E-003	1.000000000000000E+000	14	1.2165271E-001	1.4135268E-006	1.669502044927695E-005	0.0000000E+000	-1.0006999E+002	5.3915910E-006	1.0292730E-005	1.1619361E-005	6.2353321E+001	2.063841791026178E-007
7.0750946E+002	4.4889820E+004	8.1706266E+004	9.3225586E+004	-6.1215393E+001	4.153646655954071E+001	-1.0039764E-003	9.8070083E-004	2.7531667E-003	2.1148180E-003	1.000000000000000E+000	14	1.2134677E-001	1.3016466E-006	1.690142220044749E-005	0.0000000E+000	-1.0002989E+002	5.1650863E-006	9.4012394E-006	1.0726669E-005	6.1215393E+001	2.064017511705369E-007
6.3100964E+002	5.0048316E+004	8.7197547E+004	1.0053977E+005	-6.0145695E+001	4.229442824886064E+001	-1.0007691E-003	9.7790000E-004	2.8925433E-003	2.1757681E-003	1.000000000000000E+000	14	1.2111058E-001	1.2046037E-006	1.710636427458290E-005	0.0000000E+000	-1.0005396E+002	4.9512364E-006	8.6263772E-006	9.9463123E-006	6.0145695E+001	2.049420741354104E-007
5.6233929E+002	5.5720434E+004	9.2755844E+004	1.0820542E+005	-5.9005856E+001	4.305090441813809E+001	-1.0061024E-003	9.8074181E-004	3.0512686E-003	2.2421514E-003	1.000000000000000E+000	14	1.2090685E-001	1.1173826E-006	1.731171840144291E-005	0.0000000E+000	-1.0005396E+002	4.7590083E-006	7.9221536E-006	9.2416813E-006	5.9005856E+001	2.053541268600031E-007
5.0144415E+002	6.1682391E+004	9.8481266E+004	1.1620360E+005	-5.7939594E+001	4.380819344075280E+001	-9.9957571E-004	9.7849139E-004	3.2228786E-003	2.3147922E-003	1.000000000000000E+000	14	1.2074732E-001	1.0391013E-006	1.751639559961647E-005	0.0000000E+000	-1.0002187E+002	4.5679567E-006	7.2931384E-006	8.6055852E-006	5.7939594E+001	2.046771981735617E-007
4.4685895E+002	6.7867500E+004	1.0447889E+005	1.2458666E+005	-5.6993015E+001	4.456490043672966E+001	-9.9819573E-004	9.7828242E-004	3.4089538E-003	2.3973703E-003	1.000000000000000E+000	14	1.2061561E-001	9.6812619E-007	1.772170607979893E-005	0.0000000E+000	-1.0011009E+002	4.3723880E-006	6.7310907E-006	8.0265409E-006	5.6993015E+001	2.053104801824630E-007
3.9808920E+002	7.4576242E+004	1.1038008E+005	1.3321178E+005	-5.5955807E+001	4.532770012630499E+001	-9.9756173E-004	9.7464258E-004	3.6220050E-003	2.4868245E-003	1.000000000000000E+000	14	1.2050092E-001	9.0458155E-007	1.792758580056660E-005	0.0000000E+000	-1.0009406E+002	4.2025727E-006	6.2202157E-006	7.5068438E-006	5.5955807E+001	2.058797207676737E-007
3.5465955E+002	8.1265102E+004	1.1688380E+005	1.4235814E+005	-5.5190498E+001	4.608794421571656E+001	-1.0006946E-003	9.7092311E-004	3.8393184E-003	2.5882022E-003	1.000000000000000E+000	14	1.2041480E-001	8.4585821E-007	1.813263510933242E-005	0.0000000E+000	-1.0009406E+002	4.0099549E-006	5.7675279E-006	7.0245369E-006	5.5190498E+001	2.050493087658129E-007
3.1631586E+002	8.8248984E+004	1.2353482E+005	1.5181809E+005	-5.4459305E+001	4.684492819834850E+001	-9.9815847E-004	9.7134762E-004	4.0729563E-003	2.6967549E-003	1.000000000000000E+000	14	1.2035147E-001	7.9273474E-007	1.833609231241508E-005	0.0000000E+000	-1.0007802E+002	3.8287994E-006	5.3597228E-006	6.5868303E-006	5.4459305E+001	2.034572030826591E-007
2.8189429E+002	9.5774320E+004	1.3033208E+005	1.6173797E+005	-5.3689754E+001	4.760038743421319E+001	-1.0065499E-003	9.6782250E-004	4.3319408E-003	2.8129448E-003	1.000000000000000E+000	14	1.2028751E-001	7.4371843E-007	1.853826674661913E-005	0.0000000E+000	-1.0006999E+002	3.6612137E-006	4.9822711E-006	6.1828400E-006	5.3689754E+001	2.021744342040525E-007
2.5104436E+002	1.0321761E+005	1.3782273E+005	1.7218880E+005	-5.3169884E+001	4.835693083016668E+001	-1.0000418E-003	9.7690139E-004	4.5999042E-003	2.9470040E-003	1.000000000000000E+000	14	1.2023401E-001	6.9826848E-007	1.874139644333183E-005	0.0000000E+000	-1.0007802E+002	3.4813206E-006	4.6484815E-006	5.8075789E-006	5.3169884E+001	2.031296967126977E-007
2.2392513E+002	1.1116268E+005	1.4525584E+005	1.8291091E+005	-5.2573570E+001	4.911971846641973E+001	-1.0046666E-003	9.8314625E-004	4.8930957E-003	3.0858282E-003	1.000000000000000E+000	14	1.2019435E-001	6.5711964E-007	1.894776712611090E-005	0.0000000E+000	-1.0008604E+002	3.3226136E-006	4.3416458E-006	5.4671427E-006	5.2573570E+001	2.063706827790759E-007
1.9955299E+002	1.1898976E+005	1.5367459E+005	1.9435648E+005	-5.2249493E+001	4.988119356919196E+001	-1.0026712E-003	9.8500401E-004	5.1899096E-003	3.2446352E-003	1.000000000000000E+000	14	1.2016201E-001	6.1825574E-007	1.915473565665143E-005	0.0000000E+000	-1.0010207E+002	3.1500072E-006	4.0682162E-006	5.1451848E-006	5.2249493E+001	2.069685305405322E-007
1.7778128E+002	1.2734842E+005	1.6259253E+005	2.0652833E+005	-5.1930653E+001	5.064925571237109E+001	-9.9819584E-004	9.7398227E-004	5.5059660E-003	3.4125219E-003	1.000000000000000E+000	14	1.2013754E-001	5.8170002E-007	1.936341957635603E-005	0.0000000E+000	-1.0007802E+002	2.9856183E-006	3.8118983E-006	4.8419506E-006	5.1930653E+001	2.086839197046001E-007
1.5842838E+002	1.3603086E+005	1.7204133E+005	2.1932308E+005	-5.1667034E+001	5.141575854879920E+001	-1.0021863E-003	9.7991840E-004	5.8392142E-003	3.5929510E-003	1.000000000000000E+000	14	1.2011259E-001	5.4765138E-007	1.957040756001349E-005	0.0000000E+000	-1.0011009E+002	2.8279308E-006	3.5765486E-006	4.5594838E-006	5.1667034E+001	2.069879836574551E-007
1.4131134E+002	1.4495686E+005	1.8245781E+005	2.3303078E+005	-5.1533989E+001	5.216891079788911E+001	-1.0047784E-003	9.7872748E-004	6.1727781E-003	3.7842430E-003	1.000000000000000E+000	14	1.2009642E-001	5.1536716E-007	1.977467211336698E-005	0.0000000E+000	-1.0011009E+002	2.6693908E-006	3.3599736E-006	4.2912784E-006	5.1533989E+001	2.042645533534943E-007
1.2584569E+002	1.5428402E+005	1.9412570E+005	2.4796844E+005	-5.1523605E+001	5.292439230039599E+001	-1.0057668E-003	9.7235414E-004	6.5147649E-003	3.9927489E-003	1.000000000000000E+000	14	1.2008431E-001	4.8427256E-007	1.997761257317087E-005	0.0000000E+000	-1.0008604E+002	2.5091588E-006	3.1571137E-006	4.0327714E-006	5.1523605E+001	2.029404598038873E-007
1.1218996E+002	1.6394980E+005	2.0532431E+005	2.6275009E+005	-5.1392918E+001	5.366984342919022E+001	-9.9612586E-004	9.7100594E-004	6.9091688E-003	4.2191092E-003	1.000000000000000E+000	14	1.2005860E-001	4.5693079E-007	2.017755888704288E-005	0.0000000E+000	-1.0006197E+002	2.3747896E-006	2.9740934E-006	3.8058977E-006	5.1392918E+001	1.999463138720096E-007
1.0003201E+002	1.7449531E+005	2.1887280E+005	2.7991769E+005	-5.1436562E+001	5.442968586529605E+001	-9.9381362E-004	9.7932550E-004	7.2692456E-003	4.4443910E-003	1.000000000000000E+000	14	1.2005351E-001	4.2888860E-007	2.038295873573507E-005	0.0000000E+000	-1.0007802E+002	2.2270146E-006	2.7933870E-006	3.5724788E-006	5.1436562E+001	2.053998486921937E-007
8.9115974E+001	1.8571427E+005	2.3530730E+005	2.9976544E+005	-5.1718037E+001	5.519675414172525E+001	-9.9621911E-004	9.8367303E-004	7.5897793E-003	4.6766712E-003	1.000000000000000E+000	14	1.2004549E-001	4.0046473E-007	2.059164412511518E-005	0.0000000E+000	-1.0005396E+002	2.0667223E-006	2.6186187E-006	3.3359415E-006	5.1718037E+001	2.086853893801065E-007
7.9415527E+001	1.9709755E+005	2.5050398E+005	3.1874706E+005	-5.1804188E+001	5.596124801799306E+001	-9.9868060E-004	9.8267780E-004	8.0001857E-003	4.9412516E-003	1.000000000000000E+000	14	1.2003345E-001	3.7657901E-007	2.079899571721979E-005	0.0000000E+000	-1.0008604E+002	1.9399424E-006	2.4655978E-006	3.1372838E-006	5.1804188E+001	2.073515921046125E-007
7.0838745E+001	2.0950658E+005	2.6738350E+005	3.3968653E+005	-5.1919758E+001	5.671236469366704E+001	-9.9881110E-004	9.8181819E-004	8.4026186E-003	5.2062767E-003	1.000000000000000E+000	14	1.2003350E-001	3.5336549E-007	2.100310812183827E-005	0.0000000E+000	-1.0004594E+002	1.8156871E-006	2.3172770E-006	2.9438906E-006	5.1919758E+001	2.041124046184772E-007
6.3082302E+001	2.2368700E+005	2.8555275E+005	3.6273441E+005	-5.1926720E+001	5.749282374410541E+001	-9.9170639E-004	9.8039210E-004	8.8354014E-003	5.4754703E-003	1.000000000000000E+000	14	1.2001710E-001	3.3086772E-007	2.121485209729801E-005	0.0000000E+000	-1.0009406E+002	1.7000560E-006	2.1702456E-006	2.7568381E-006	5.1926720E+001	2.117439754597381E-007
5.6241817E+001	2.3746980E+005	3.0691106E+005	3.8805450E+005	-5.2269394E+001	5.823635380607448E+001	-9.9687173E-004	9.7803806E-004	9.2203682E-003	5.7675038E-003	1.000000000000000E+000	14	1.2002046E-001	3.0928763E-007	2.141669659736115E-005	0.0000000E+000	-1.0005396E+002	1.5769681E-006	2.0381074E-006	2.5769575E-006	5.2269394E+001	2.018445000631416E-007
5.0144413E+001	2.5134508E+005	3.2765981E+005	4.1295919E+005	-5.2508492E+001	5.899315917535569E+001	-9.9601399E-004	9.7655650E-004	9.6866675E-003	6.0982676E-003	1.000000000000000E+000	14	1.2001634E-001	2.9062517E-007	2.162144259312054E-005	0.0000000E+000	-1.0010207E+002	1.4738595E-006	1.9213605E-006	2.4215467E-006	5.2508492E+001	2.047459957593913E-007
4.4671219E+001	2.6943313E+005	3.5150400E+005	4.4288744E+005	-5.2529289E+001	5.975723566496163E+001	-9.9623785E-004	9.7029668E-004	1.0135894E-002	6.3846321E-003	1.000000000000000E+000	14	1.2001291E-001	2.7097835E-007	2.182730184969781E-005	0.0000000E+000	-1.0009406E+002	1.3736126E-006	1.7920228E-006	2.2579100E-006	5.2529289E+001	2.058592565772661E-007
3.9808922E+001	2.8810063E+005	3.7819091E+005	4.7542647E+005	-5.2700348E+001	6.051970818122209E+001	-9.9618174E-004	9.6654840E-004	1.0571306E-002	6.6893524E-003	1.000000000000000E+000	14	1.2001165E-001	2.5242946E-007	2.203168829003334E-005	0.0000000E+000	-1.0006197E+002	1.2746106E-006	1.6731866E-006	2.1033748E-006	5.2700348E+001	2.043864403355352E-007
3.5465305E+001	3.0801219E+005	4.0625209E+005	5.0981594E+005	-5.2831326E+001	6.127013469682424E+001	-9.8945003E-004	9.5916557E-004	1.1046401E-002	7.0143146E-003	1.000000000000000E+000	14	1.2000903E-001	2.3539678E-007	2.223198040871264E-005	0.0000000E+000	-1.0005396E+002	1.1850620E-006	1.5630354E-006	1.9614922E-006	5.2831326E+001	2.002921186792976E-007
3.1629551E+001	3.3190525E+005	4.3337866E+005	5.4587375E+005	-5.2553120E+001	6.199444233122631E+001	-9.9825172E-004	9.5872470E-004	1.1610731E-002	7.3182997E-003	1.000000000000000E+000	14	1.2000262E-001	2.1983585E-007	2.242486813295485E-005	0.0000000E+000	-1.0006197E+002	1.1138576E-006	1.4543974E-006	1.8319254E-006	5.2553120E+001	1.928877242422068E-007
2.8170074E+001	3.5283853E+005	4.6907819E+005	5.8696625E+005	-5.3049675E+001	6.279975644951628E+001	-9.9375763E-004	9.6235418E-004	1.2044447E-002	7.6922094E-003	1.000000000000000E+000	14	1.2000478E-001	2.0444919E-007	2.263891469784979E-005	0.0000000E+000	-1.0011009E+002	1.0241175E-006	1.3615041E-006	1.7036755E-006	5.3049675E+001	2.140465648949436E-007
2.5104435E+001	3.8172163E+005	4.9762194E+005	6.2716744E+005	-5.2508492E+001	6.355593229873921E+001	-9.8931952E-004	9.6710696E-004	1.2740023E-002	8.0205146E-003	1.000000000000000E+000	14	1.2000040E-001	1.9133711E-007	2.284077496262358E-005	0.0000000E+000	-1.0007802E+002	9.7046461E-007	1.2651224E-006	1.5944705E-006	5.2508492E+001	2.018602647737879E-007
2.2385387E+001	4.0964272E+005	5.3839525E+005	6.7651800E+005	-5.2733994E+001	6.424244115801412E+001	-9.9728210E-004	9.6488732E-004	1.3205484E-002	8.3636921E-003	1.000000000000000E+000	14	1.2000045E-001	1.7737955E-007	2.302432096645020E-005	0.0000000E+000	-1.0008604E+002	8.9504840E-007	1.1763661E-006	1.4781573E-006	5.2733994E+001	1.835460038266255E-007
1.9955299E+001	4.4411506E+005	5.7879050E+005	7.2954550E+005	-5.2500404E+001	6.500422655415605E+001	-9.9907222E-004	9.6828089E-004	1.3779723E-002	8.6731827E-003	1.000000000000000E+000	14	1.2000274E-001	1.6448972E-007	2.322737918923490E-005	0.0000000E+000	-1.0007802E+002	8.3443160E-007	1.0874684E-006	1.3707164E-006	5.2500404E+001	2.030582227846982E-007
1.7796129E+001	4.8052416E+005	6.1388981E+005	7.7959231E+005	-5.1947826E+001	6.584853598094196E+001	-9.9231245E-004	9.6743915E-004	1.4568142E-002	9.0333726E-003	1.000000000000000E+000	14	1.1999571E-001	1.5392111E-007	2.345396111219978E-005	0.0000000E+000	-1.0004594E+002	7.9064250E-007	1.0100790E-006	1.2827218E-006	5.1947826E+001	2.265819229648738E-007
1.5857576E+001	5.1903816E+005	6.5786000E+005	8.3796206E+005	-5.1727280E+001	6.656991724189720E+001	-9.9103502E-004	9.6999324E-004	1.5256321E-002	9.4030360E-003	1.000000000000000E+000	14	1.2000352E-001	1.4320878E-007	2.364833615600916E-005	0.0000000E+000	-1.0007802E+002	7.3918062E-007	9.3688175E-007	1.1933714E-006	5.1727280E+001	1.943750438093853E-007
1.4118974E+001	5.6239544E+005	7.0499894E+005	9.0183819E+005	-5.1419754E+001	6.737223111998173E+001	-9.8838715E-004	9.6659898E-004	1.5989266E-002	9.7712073E-003	1.000000000000000E+000	14	1.1999601E-001	1.3305714E-007	2.386298081550017E-005	0.0000000E+000	-1.0007802E+002	6.9148780E-007	8.6682462E-007	1.1088464E-006	5.1419754E+001	2.146446594910131E-007
1.2600808E+001	6.0187838E+005	7.4873563E+005	9.6065738E+005	-5.1205601E+001	6.826288316232967E+001	-9.9425169E-004	9.4945665E-004	1.6869152E-002	1.0247389E-002	1.000000000000000E+000	14	1.1999765E-001	1.2491202E-007	2.409736129130758E-005	0.0000000E+000	-1.0003791E+002	6.5218637E-007	8.1131861E-007	1.0409539E-006	5.1205601E+001	2.343804758074065E-007
1.1224856E+001	6.5797800E+005	7.9540469E+005	1.0322808E+006	-5.0401627E+001	6.894692103480338E+001	-1.0025967E-003	9.5214206E-004	1.7825888E-002	1.0583560E-002	1.000000000000000E+000	14	1.1999997E-001	1.1624741E-007	2.427824858521111E-005	0.0000000E+000	-1.0003791E+002	6.1746965E-007	7.4643577E-007	9.6872861E-007	5.0401627E+001	1.808872939035273E-007
1.0003201E+001	7.1833056E+005	8.4158406E+005	1.1064640E+006	-4.9517723E+001	6.970768645763019E+001	-9.8691392E-004	9.5788116E-004	1.8905303E-002	1.0937148E-002	1.000000000000000E+000	14	1.1999712E-001	1.0845099E-007	2.447892528348151E-005	0.0000000E+000	-1.0005396E+002	5.8674550E-007	6.8742122E-007	9.0377995E-007	4.9517723E+001	2.006766982703979E-007
8.9183798E+000	7.7488744E+005	8.8756781E+005	1.1782305E+006	-4.8877548E+001	7.055203401771723E+001	-9.9213526E-004	9.6150435E-004	2.0106323E-002	1.1409726E-002	1.000000000000000E+000	14	1.1999848E-001	1.0184635E-007	2.470309556680655E-005	0.0000000E+000	-1.0008604E+002	5.5818487E-007	6.3935346E-007	8.4873034E-007	4.8877548E+001	2.241702833250415E-007
7.9395342E+000	8.4270250E+005	9.2259769E+005	1.2495335E+006	-4.7591366E+001	7.149071987564821E+001	-9.9064340E-004	9.5170015E-004	2.1727651E-002	1.1845181E-002	1.000000000000000E+000	14	1.1999298E-001	9.6030220E-008	2.495051063258774E-005	0.0000000E+000	-1.0012614E+002	5.3973235E-007	5.9090348E-007	8.0029866E-007	4.7591366E+001	2.474150657811967E-007
7.0765405E+000	9.3738581E+005	9.8351575E+005	1.3586741E+006	-4.6375679E+001	7.204902526215301E+001	-1.0064008E-003	9.5004117E-004	2.2867456E-002	1.1982567E-002	1.000000000000000E+000	14	1.1999416E-001	8.8317101E-008	2.509817772941622E-005	0.0000000E+000	-1.0002989E+002	5.0779420E-007	5.3278342E-007	7.3601166E-007	4.6375679E+001	1.476670968284748E-007
6.3105822E+000	1.0219342E+006	1.0119708E+006	1.4382053E+006	-4.4719330E+001	7.266918931822875E+001	-9.9413062E-004	9.5717650E-004	2.4921991E-002	1.2338913E-002	1.000000000000000E+000	14	1.2000114E-001	8.3438117E-008	2.526138891960505E-005	0.0000000E+000	-1.0009406E+002	4.9406168E-007	4.8924483E-007	6.9531103E-007	4.4719330E+001	1.632111901888296E-007
5.6205034E+000	1.1186703E+006	1.0965954E+006	1.5665071E+006	-4.4429073E+001	7.335566588422807E+001	-9.9096051E-004	9.5711468E-004	2.5822515E-002	1.2653964E-002	1.000000000000000E+000	14	1.1999459E-001	7.6600088E-008	2.544299951510826E-005	0.0000000E+000	-1.0006197E+002	4.5586617E-007	4.4687050E-007	6.3836291E-007	4.4429073E+001	1.816105955032160E-007
5.0144415E+000	1.1978735E+006	1.1086975E+006	1.6322105E+006	-4.2785946E+001	7.411318904018844E+001	-1.0006946E-003	9.5675566E-004	2.8627573E-002	1.3208646E-002	1.000000000000000E+000	14	1.1998957E-001	7.3513540E-008	2.564401450296201E-005	0.0000000E+000	-1.0006999E+002	4.4963352E-007	4.1616036E-007	6.1266610E-007	4.2785946E+001	2.010149878537454E-007
4.4693937E+000	1.2871439E+006	1.1964996E+006	1.7573704E+006	-4.2909832E+001	7.495452190676588E+001	-9.8346407E-004	9.5967785E-004	2.9761784E-002	1.3796137E-002	1.000000000000000E+000	14	1.1999673E-001	6.8281985E-008	2.586731418891451E-005	0.0000000E+000	-1.0008604E+002	4.1677387E-007	3.8742348E-007	5.6903201E-007	4.2909832E+001	2.232996859524975E-007
3.9778514E+000	1.3985253E+006	1.2111969E+006	1.8501003E+006	-4.0894295E+001	7.589117856460507E+001	-9.8548736E-004	9.5610583E-004	3.3033669E-002	1.4157800E-002	1.000000000000000E+000	14	1.1999431E-001	6.4858270E-008	2.611423991827218E-005	0.0000000E+000	-1.0010207E+002	4.0858251E-007	3.5385406E-007	5.4051122E-007	4.0894295E+001	2.469257293576764E-007
3.5511365E+000	1.5440721E+006	1.2166000E+006	1.9657758E+006	-3.8235161E+001	7.693241354738711E+001	-9.9310488E-004	9.5038768E-004	3.6838755E-002	1.4110182E-002	1.000000000000000E+000	14	1.1999667E-001	6.1042911E-008	2.638905151174165E-005	0.0000000E+000	-1.0004594E+002	3.9957621E-007	3.1483270E-007	5.0870500E-007	3.8235161E+001	2.748115934694700E-007
3.1603966E+000	1.6355855E+006	1.2751340E+006	2.0739109E+006	-3.7940666E+001	7.809522082933108E+001	-9.7747811E-004	9.5372193E-004	3.9493237E-002	1.4929808E-002	1.000000000000000E+000	14	1.1999550E-001	5.7859527E-008	2.669757599375698E-005	0.0000000E+000	-1.0009406E+002	3.8027085E-007	2.9646648E-007	4.8218078E-007	3.7940666E+001	3.085244820153213E-007
2.8183618E+000	1.7482041E+006	1.3280870E+006	2.1954573E+006	-3.7223446E+001	7.939069953087892E+001	-9.7717927E-004	9.6134358E-004	4.2520352E-002	1.5559654E-002	1.000000000000000E+000	14	1.1999461E-001	5.4655860E-008	2.704124226882474E-005	0.0000000E+000	-1.0011812E+002	3.6269549E-007	2.7553486E-007	4.5548597E-007	3.7223446E+001	3.436662750677647E-007