EC-Lab ASCII FILE
Nb header lines : 75                          

Potentio Electrochemical Impedance Spectroscopy

Run on channel : 2 (SN 20919)
User : 
CE vs. WE compliance from -10 V to 10 V
Electrode connection : standard
Ewe ctrl range : min = -10.00 V, max = 10.00 V
Safety Limits :
	Do not start on E overload
Acquisition started on : 01/24/2020 09:52:15
Technique started on : 01/24/2020 09:52:16
Saved on :
	File : DE_40_6_60.mpr
	Directory : P:\Chemistry\Data\VMP3\Kyler\DOE\DE_40\2ND 60C\
	Host : 10.0.4.99
Device : VMP3 (SN 0183)
Address : USB
EC-Lab for windows v11.33 (software)
Internet server v11.32 (firmware)
Command interpretor v11.33 (firmware)
Electrode material : 
Initial state : 
Electrolyte : 
Comments : 
Electrode surface area : 0.001 cm²
Characteristic mass : 0.001 g
Equivalent Weight : 0.000 g/eq.
Density : 0.000 g/cm3
Record Analogic IN 1
Cycle Definition : Charge/Discharge alternance
External device configuration :
   device type : Thermostat
   device name : Other
   Analog OUT : 
      mode : E/V
      unit : T/°C
      max : 400.000 at 5.000 V
      min : -100.000 at 0.000 V
      current : 0.000
   Analog IN 1 : 
      unit : T/°C
      max : 400.000 at 5.000 V
      min : -100.000 at 0.000 V
Mode                Single sine         
E (V)               0.0000              
vs.                 Eoc                 
tE (h:m:s)          0:00:0.0000         
record              0                   
dI                  1.000               
unit dI             mA                  
dt (s)              0.000               
fi                  1.000               
unit fi             MHz                 
ff                  1.000               
unit ff             Hz                  
Nd                  20                  
Points              per decade          
spacing             Logarithmic         
Va (mV)             128.0               
pw                  0.50                
Na                  3                   
corr                0                   
E range min (V)     -10.000             
E range max (V)     10.000              
I Range             Auto                
Bandwidth           5                   
nc cycles           0                   
goto Ns'            0                   
nr cycles           0                   
inc. cycle          1                   

freq/Hz	Re(Z)/Ohm	-Im(Z)/Ohm	|Z|/Ohm	Phase(Z)/deg	time/s	<Ewe>/V	<I>/mA	Cs/µF	Cp/µF	cycle number	I Range	|Ewe|/V	|I|/A	(Q-Qo)/mA.h	Analog OUT/V	Analog IN 1/V	Re(Y)/Ohm-1	Im(Y)/Ohm-1	|Y|/Ohm-1	Phase(Y)/deg	dq/mA.h	
1.0000186E+006	6.0505249E+001	2.0688351E+001	6.3944454E+001	-1.8876921E+001	1.646493491512956E+000	-1.1950819E-002	1.7150753E-003	7.6928316E-003	8.0525264E-004	1.000000000000000E+000	11	1.0611515E-003	1.6594895E-005	3.824876289709209E-007	0.0000000E+000	-1.0010184E+002	1.4797464E-002	5.0596460E-003	1.5638573E-002	1.8876921E+001	3.824876289709209E-007
8.9124669E+005	6.1853611E+001	1.8349897E+001	6.4518120E+001	-1.6523861E+001	2.242483493144391E+000	-1.1538315E-002	1.6018951E-003	9.7316969E-003	7.8721333E-004	1.000000000000000E+000	11	1.8139213E-003	2.8114911E-005	7.695336402490890E-007	0.0000000E+000	-1.0010986E+002	1.4859413E-002	4.4082906E-003	1.5499522E-002	1.6523861E+001	3.870460112781681E-007
7.9433269E+005	6.3692043E+001	1.6447931E+001	6.5781540E+001	-1.4479803E+001	2.837480214744573E+000	-1.1190407E-002	1.5762489E-003	1.2181658E-002	7.6158944E-004	1.000000000000000E+000	11	2.9312123E-003	4.4559802E-005	9.957350456024869E-007	0.0000000E+000	-1.0008581E+002	1.4718960E-002	3.8010469E-003	1.5201833E-002	1.4479803E+001	2.262014053533979E-007
7.0794981E+005	6.6100586E+001	1.4948500E+001	6.7769798E+001	-1.2742961E+001	3.432480882998789E+000	-1.0892032E-002	1.5749488E-003	1.5039038E-002	7.3171651E-004	1.000000000000000E+000	11	4.5306822E-003	6.6854001E-005	1.320414440724966E-006	0.0000000E+000	-1.0010184E+002	1.4392391E-002	3.2548069E-003	1.4755836E-002	1.2742961E+001	3.246793951224794E-007
6.3095681E+005	6.8091209E+001	1.3798006E+001	6.9475159E+001	-1.1455305E+001	4.028482777968748E+000	-1.0640954E-002	1.5808964E-003	1.8281179E-002	7.2107051E-004	1.000000000000000E+000	11	6.6398294E-003	9.5571275E-005	1.506784647874560E-006	0.0000000E+000	-1.0010184E+002	1.4106912E-002	2.8586255E-003	1.4393634E-002	1.1455305E+001	1.863702071495937E-007
5.6234225E+005	6.9768692E+001	1.2871120E+001	7.0946007E+001	-1.0452560E+001	4.624475792952580E+000	-1.0447687E-002	1.5121342E-003	2.1988878E-002	7.2373549E-004	1.000000000000000E+000	11	9.2969816E-003	1.3104305E-004	1.949193431614225E-006	0.0000000E+000	-1.0010184E+002	1.3861323E-002	2.5571750E-003	1.4095226E-002	1.0452560E+001	4.424087837396654E-007
5.0120619E+005	7.1301651E+001	1.1988732E+001	7.2302528E+001	-9.5444937E+000	5.221471181284869E+000	-1.0278393E-002	1.7840293E-003	2.6486861E-002	7.2823244E-004	1.000000000000000E+000	11	1.2526765E-002	1.7325486E-004	2.126509588377505E-006	0.0000000E+000	-1.0014995E+002	1.3639318E-002	2.2933288E-003	1.3830775E-002	9.5444937E+000	1.773161567632797E-007
4.4668572E+005	7.2541588E+001	1.1229256E+001	7.3405571E+001	-8.7994022E+000	5.817488489643438E+000	-1.0172092E-002	1.5721644E-003	3.1729780E-002	7.4252480E-004	1.000000000000000E+000	11	1.6365055E-002	2.2294023E-004	2.100533283676163E-006	0.0000000E+000	-1.0006175E+002	1.3462602E-002	2.0839770E-003	1.3622944E-002	8.7994022E+000	-2.597630470134186E-008
3.9810347E+005	7.3523544E+001	1.0415164E+001	7.4257576E+001	-8.0627327E+000	6.412490197893931E+000	-1.0123771E-002	1.7279063E-003	3.8384695E-002	7.5510750E-004	1.000000000000000E+000	11	2.0803738E-002	2.8015644E-004	2.398215393870487E-006	0.0000000E+000	-1.0006175E+002	1.3333523E-002	1.8887939E-003	1.3466639E-002	8.0627327E+000	2.976821101943236E-007
3.5480997E+005	7.4367188E+001	9.7268686E+000	7.5000603E+001	-7.4517097E+000	7.008492972847307E+000	-1.0101567E-002	1.7548575E-003	4.6115965E-002	7.7565369E-004	1.000000000000000E+000	11	2.5916295E-002	3.4554783E-004	3.165981002637030E-006	0.0000000E+000	-1.0008581E+002	1.3220621E-002	1.7291933E-003	1.3333227E-002	7.4517097E+000	7.677656087665431E-007
3.1622997E+005	7.4998924E+001	9.0604563E+000	7.5544228E+001	-6.8883963E+000	7.605488761240849E+000	-1.0113312E-002	1.8076379E-003	5.5547822E-002	7.9903280E-004	1.000000000000000E+000	11	3.1708565E-002	4.1973509E-004	4.391992910622826E-006	0.0000000E+000	-1.0007779E+002	1.3141728E-002	1.5876234E-003	1.3237279E-002	6.8883963E+000	1.226011907985796E-006
2.8183453E+005	7.5519333E+001	8.4288816E+000	7.5988258E+001	-6.3685527E+000	8.202486976253567E+000	-1.0139729E-002	1.6240218E-003	6.6997096E-002	8.2433340E-004	1.000000000000000E+000	11	3.8308136E-002	5.0413230E-004	5.322534053078723E-006	0.0000000E+000	-1.0011788E+002	1.3078718E-002	1.4597450E-003	1.3159928E-002	6.3685527E+000	9.305411424558970E-007
2.5118764E+005	7.5943336E+001	7.8807950E+000	7.6351143E+001	-5.9244947E+000	8.798485244537005E+000	-1.0140493E-002	1.6316432E-003	8.0399215E-002	8.5656595E-004	1.000000000000000E+000	11	4.5733269E-002	5.9898605E-004	5.508881544741194E-006	0.0000000E+000	-1.0009383E+002	1.3027425E-002	1.3518826E-003	1.3097381E-002	5.9244947E+000	1.863474916624711E-007
2.2387173E+005	7.6258453E+001	7.3842587E+000	7.6615135E+001	-5.5308218E+000	9.394489966187393E+000	-1.0140213E-002	1.5738521E-003	9.6275091E-002	8.9433166E-004	1.000000000000000E+000	11	5.4033831E-002	7.0526311E-004	5.426524872238386E-006	0.0000000E+000	-1.0010184E+002	1.2991486E-002	1.2579917E-003	1.3052251E-002	5.5308218E+000	-8.235667250280871E-008
1.9954350E+005	7.6501396E+001	6.9628797E+000	7.6817612E+001	-5.2005253E+000	9.991484207886970E+000	-1.0153001E-002	1.5415186E-003	1.1454962E-001	9.4113051E-004	1.000000000000000E+000	11	6.3117348E-002	8.2165207E-004	6.806921123876237E-006	0.0000000E+000	-1.0006977E+002	1.2964261E-002	1.1799600E-003	1.3017848E-002	5.2005253E+000	1.380396251637851E-006
1.7783180E+005	7.6696808E+001	6.6225171E+000	7.6982193E+001	-4.9350615E+000	1.058748426285456E+001	-1.0126007E-002	1.7022778E-003	1.3514116E-001	1.0001226E-003	1.000000000000000E+000	11	7.2990596E-002	9.4814907E-004	7.567473717428382E-006	0.0000000E+000	-1.0006977E+002	1.2941862E-002	1.1174871E-003	1.2990017E-002	4.9350615E+000	7.605525935521455E-007
1.5848613E+005	7.6856850E+001	6.3397174E+000	7.7117882E+001	-4.7155008E+000	1.118247261110810E+001	-1.0118456E-002	1.5444941E-003	1.5840138E-001	1.0705048E-003	1.000000000000000E+000	11	8.3622776E-002	1.0843500E-003	8.437436703327370E-006	0.0000000E+000	-1.0009383E+002	1.2923270E-002	1.0660061E-003	1.2967161E-002	4.7155008E+000	8.699629858989883E-007
1.4125594E+005	7.6978577E+001	6.1422148E+000	7.7223236E+001	-4.5620351E+000	1.177748058605357E+001	-1.0115230E-002	1.6851831E-003	1.8343762E-001	1.1604927E-003	1.000000000000000E+000	11	9.4993554E-002	1.2301162E-003	7.681854929264065E-006	0.0000000E+000	-1.0010184E+002	1.2908444E-002	1.0299805E-003	1.2949470E-002	4.5620351E+000	-7.555817740633049E-007
1.2590930E+005	7.7084007E+001	6.0078897E+000	7.7317780E+001	-4.4565954E+000	1.237448888106155E+001	-1.0125185E-002	1.5595626E-003	2.1039741E-001	1.2703562E-003	1.000000000000000E+000	11	1.0722924E-001	1.3868640E-003	6.451637036897915E-006	0.0000000E+000	-1.0006977E+002	1.2894531E-002	1.0049934E-003	1.2933636E-002	4.4565954E+000	-1.230217892366151E-006
1.1220494E+005	7.7177811E+001	5.9499965E+000	7.7406830E+001	-4.4084778E+000	1.283447274289210E+001	-1.0117542E-002	1.4880158E-003	2.3839186E-001	1.4085306E-003	1.000000000000000E+000	11	1.2048451E-001	1.5565101E-003	5.678226790242156E-006	0.0000000E+000	-1.0010986E+002	1.2880535E-002	9.9302037E-004	1.2918756E-002	4.4084778E+000	-7.734102466557587E-007
1.0000371E+005	7.7264061E+001	5.9513745E+000	7.7492928E+001	-4.4045920E+000	1.329349063136033E+001	-1.0108891E-002	1.6257341E-003	2.6741558E-001	1.5772376E-003	1.000000000000000E+000	11	1.3488923E-001	1.7406651E-003	4.239673127374974E-006	0.0000000E+000	-1.0012590E+002	1.2866292E-002	9.9104445E-004	1.2904404E-002	4.4045920E+000	-1.438553662867182E-006
8.9129305E+004	7.7334633E+001	6.0286055E+000	7.7569260E+001	-4.4574661E+000	1.388849383298657E+001	-1.0043922E-002	1.6402268E-003	2.9619843E-001	1.7891106E-003	1.000000000000000E+000	11	1.2999485E-001	1.6758554E-003	4.965818386279150E-007	0.0000000E+000	-1.0008581E+002	1.2852712E-002	1.0019306E-003	1.2891705E-002	4.4574661E+000	-3.743091288747059E-006
7.9433273E+004	7.7391762E+001	6.1679893E+000	7.7637161E+001	-4.5567427E+000	1.448347906125127E+001	-1.0002834E-002	1.7623291E-003	3.2484341E-001	2.0503215E-003	1.000000000000000E+000	11	1.2968498E-001	1.6703983E-003	7.646059461520862E-007	0.0000000E+000	-1.0008581E+002	1.2839717E-002	1.0233031E-003	1.2880430E-002	4.5567427E+000	2.680241075241712E-007
7.0794977E+004	7.7446320E+001	6.3902459E+000	7.7709511E+001	-4.7169003E+000	1.507948564956314E+001	-9.9818232E-003	1.7666038E-003	3.5180345E-001	2.3789587E-003	1.000000000000000E+000	11	1.2953754E-001	1.6669458E-003	2.783189032711865E-006	0.0000000E+000	-1.0009383E+002	1.2824855E-002	1.0582035E-003	1.2868438E-002	4.7169003E+000	2.018583086559779E-006
6.3093828E+004	7.7505150E+001	6.6822028E+000	7.7792671E+001	-4.9276419E+000	1.567448170445277E+001	-9.9528525E-003	1.7606565E-003	3.7749708E-001	2.7853227E-003	1.000000000000000E+000	11	1.2957866E-001	1.6656924E-003	3.095163334109303E-006	0.0000000E+000	-1.0007779E+002	1.2807170E-002	1.1041862E-003	1.2854681E-002	4.9276419E+000	3.119743013974384E-007
5.6237012E+004	7.7565361E+001	7.0523129E+000	7.7885300E+001	-5.1951003E+000	1.626949575942126E+001	-9.9346582E-003	1.8959510E-003	4.0129739E-001	3.2901710E-003	1.000000000000000E+000	11	1.2948301E-001	1.6624833E-003	6.253768205170571E-006	0.0000000E+000	-1.0010184E+002	1.2786651E-002	1.1625739E-003	1.2839394E-002	5.1951003E+000	3.158604871061268E-006
5.0122477E+004	7.7619476E+001	7.5033441E+000	7.7981300E+001	-5.5215302E+000	1.686448365435353E+001	-9.9242926E-003	1.7156805E-003	4.2318740E-001	3.9179740E-003	1.000000000000000E+000	11	1.2946132E-001	1.6601585E-003	6.985712504297327E-006	0.0000000E+000	-1.0012590E+002	1.2764087E-002	1.2338829E-003	1.2823587E-002	5.5215302E+000	7.319442991267555E-007
4.4666715E+004	7.7674683E+001	8.0470705E+000	7.8090408E+001	-5.9147224E+000	1.746047653598362E+001	-9.9007655E-003	1.7996829E-003	4.4279051E-001	4.7019557E-003	1.000000000000000E+000	11	1.2934573E-001	1.6563587E-003	8.438030016589133E-006	0.0000000E+000	-1.0009383E+002	1.2737497E-002	1.3196003E-003	1.2805670E-002	5.9147224E+000	1.452317512291807E-006
3.9814063E+004	7.7744316E+001	8.6815681E+000	7.8227539E+001	-6.3717198E+000	1.805647715096711E+001	-9.8879579E-003	1.6768379E-003	4.6045318E-001	5.6710374E-003	1.000000000000000E+000	11	1.2936537E-001	1.6537063E-003	7.791451066864990E-006	0.0000000E+000	-1.0010986E+002	1.2704258E-002	1.4186617E-003	1.2783222E-002	6.3717198E+000	-6.465789497241434E-007
3.5480996E+004	7.7830788E+001	9.4318342E+000	7.8400200E+001	-6.9096303E+000	1.851549287940725E+001	-9.8891323E-003	1.6796294E-003	4.7558501E-001	6.8831327E-003	1.000000000000000E+000	11	1.4029230E-001	1.7894381E-003	7.680349938241610E-006	0.0000000E+000	-1.0008581E+002	1.2662431E-002	1.5344821E-003	1.2755070E-002	6.9096303E+000	-1.111011286233802E-007
3.1621143E+004	7.7917976E+001	1.0279470E+001	7.8593117E+001	-7.5154490E+000	1.911147109439480E+001	-9.8584844E-003	1.8387107E-003	4.8963431E-001	8.3761467E-003	1.000000000000000E+000	11	1.3036987E-001	1.6587951E-003	7.233784514033080E-006	0.0000000E+000	-1.0010184E+002	1.2614459E-002	1.6641854E-003	1.2723761E-002	7.5154490E+000	-4.465654242085294E-007
2.8188096E+004	7.8028954E+001	1.1251894E+001	7.8836052E+001	-8.2055750E+000	1.957148900956963E+001	-9.8649897E-003	1.7318524E-003	5.0179780E-001	1.0221869E-002	1.000000000000000E+000	11	1.3974366E-001	1.7725857E-003	5.897726435298359E-006	0.0000000E+000	-1.0008581E+002	1.2554692E-002	1.8104058E-003	1.2684552E-002	8.2055750E+000	-1.336058078734722E-006
2.5116910E+004	7.8145416E+001	1.2357656E+001	7.9116486E+001	-8.9861507E+000	2.016747490453417E+001	-9.8442417E-003	1.6682902E-003	5.1276433E-001	1.2509963E-002	1.000000000000000E+000	11	1.3005298E-001	1.6438165E-003	4.748047487519216E-006	0.0000000E+000	-1.0008581E+002	1.2484454E-002	1.9742500E-003	1.2639591E-002	8.9861507E+000	-1.149678947779143E-006
2.2389027E+004	7.8291100E+001	1.3600371E+001	7.9463615E+001	-9.8548164E+000	2.062647687303252E+001	-9.8575884E-003	1.6205303E-003	5.2267790E-001	1.5310841E-002	1.000000000000000E+000	11	1.3761327E-001	1.7317771E-003	6.256451623908814E-006	0.0000000E+000	-1.0007779E+002	1.2398689E-002	2.1538434E-003	1.2584376E-002	9.8548164E+000	1.508404136389597E-006
1.9948783E+004	7.8455498E+001	1.5007198E+001	7.9877914E+001	-1.0828897E+001	2.122249276799266E+001	-9.8324595E-003	1.7861162E-003	5.3162342E-001	1.8765058E-002	1.000000000000000E+000	11	1.2959027E-001	1.6223543E-003	5.746947982309696E-006	0.0000000E+000	-1.0006175E+002	1.2296173E-002	2.3520482E-003	1.2519105E-002	1.0828897E+001	-5.095036415991173E-007
1.7786895E+004	7.8655190E+001	1.6583143E+001	8.0384323E+001	-1.1905506E+001	2.168147094981396E+001	-9.8333536E-003	1.7521075E-003	5.3957665E-001	2.2963820E-002	1.000000000000000E+000	11	1.3530111E-001	1.6831779E-003	7.257777268021729E-006	0.0000000E+000	-1.0007779E+002	1.2172637E-002	2.5663986E-003	1.2440236E-002	1.1905506E+001	1.510829285712033E-006
1.5847686E+004	7.8886223E+001	1.8351828E+001	8.0992752E+001	-1.3096161E+001	2.214147686495562E+001	-9.8351799E-003	1.7259051E-003	5.4723638E-001	2.8095793E-002	1.000000000000000E+000	11	1.4039946E-001	1.7334818E-003	8.438195796198366E-006	0.0000000E+000	-1.0006977E+002	1.2025658E-002	2.7976090E-003	1.2346784E-002	1.3096161E+001	1.180418528176637E-006
1.4121879E+004	7.9145088E+001	2.0329140E+001	8.1714249E+001	-1.4405524E+001	2.273748491992592E+001	-9.8321233E-003	1.7216265E-003	5.5438137E-001	3.4312397E-002	1.000000000000000E+000	11	1.2973729E-001	1.5876949E-003	9.561263097961071E-006	0.0000000E+000	-1.0007779E+002	1.1853002E-002	3.0445519E-003	1.2237768E-002	1.4405524E+001	1.123067301762705E-006
1.2590932E+004	7.9458763E+001	2.2525658E+001	8.2589951E+001	-1.5827432E+001	2.319648072842392E+001	-9.8312283E-003	1.7058309E-003	5.6115752E-001	4.1743163E-002	1.000000000000000E+000	11	1.3305433E-001	1.6110233E-003	8.840198420389142E-006	0.0000000E+000	-1.0006977E+002	1.1648966E-002	3.3023497E-003	1.2108010E-002	1.5827432E+001	-7.210646775719296E-007
1.1217711E+004	7.9825989E+001	2.4993420E+001	8.3647232E+001	-1.7385275E+001	2.365648512358894E+001	-9.8308930E-003	1.6545352E-003	5.6766254E-001	5.0680213E-002	1.000000000000000E+000	11	1.3578710E-001	1.6233305E-003	8.090018408081959E-006	0.0000000E+000	-1.0007779E+002	1.1408831E-002	3.5720910E-003	1.1954968E-002	1.7385275E+001	-7.501800123071824E-007
1.0002229E+004	8.0247620E+001	2.7713640E+001	8.4898331E+001	-1.9052431E+001	2.411547751873150E+001	-9.8299794E-003	1.6530497E-003	5.7415575E-001	6.1181281E-002	1.000000000000000E+000	11	1.3794714E-001	1.6248510E-003	9.899064643774181E-006	0.0000000E+000	-1.0002968E+002	1.1133555E-002	3.8449902E-003	1.1778794E-002	1.9052431E+001	1.809046235692222E-006
8.9149297E+003	8.0738525E+001	3.0748920E+001	8.6395638E+001	-2.0849119E+001	2.459792138167541E+001	-9.8170601E-003	1.8000532E-003	5.8059371E-001	7.3544204E-002	1.000000000000000E+000	11	1.3960886E-001	1.6159249E-003	1.002473466216664E-005	0.0000000E+000	-1.0010986E+002	1.0816760E-002	4.1195164E-003	1.1574659E-002	2.0849119E+001	1.256700183924606E-007
7.9439976E+003	8.1306435E+001	3.4120754E+001	8.8175743E+001	-2.2765663E+001	2.527798882732168E+001	-9.7966278E-003	1.8743892E-003	5.8716804E-001	8.7922774E-002	1.000000000000000E+000	11	1.2932375E-001	1.4666590E-003	8.249675222588444E-006	0.0000000E+000	-1.0005373E+002	1.0457471E-002	4.3885433E-003	1.1340988E-002	2.2765663E+001	-1.775059439578197E-006
7.0822334E+003	8.1967186E+001	3.7845535E+001	9.0282356E+001	-2.4783512E+001	2.585486432138714E+001	-9.7804833E-003	2.0217646E-003	5.9379327E-001	1.0434191E-001	1.000000000000000E+000	11	1.3008666E-001	1.4408869E-003	7.280911732846613E-006	0.0000000E+000	-1.0009383E+002	1.0056208E-002	4.6431092E-003	1.1076361E-002	2.4783512E+001	-9.687634897418314E-007
6.3077344E+003	8.2732086E+001	4.2003059E+001	9.2783913E+001	-2.6916895E+001	2.648956171146710E+001	-9.7762514E-003	1.8753174E-003	6.0071135E-001	1.2310687E-001	1.000000000000000E+000	11	1.3056591E-001	1.4072042E-003	8.923916264314256E-006	0.0000000E+000	-1.0007779E+002	9.6101156E-003	4.8790532E-003	1.0777730E-002	2.6916895E+001	1.643004531467643E-006
5.6210552E+003	8.3608620E+001	4.6580318E+001	9.5708557E+001	-2.9123203E+001	2.719028606478241E+001	-9.7716842E-003	1.9533699E-003	6.0785472E-001	1.4398034E-001	1.000000000000000E+000	11	1.3079387E-001	1.3665849E-003	9.715205320849135E-006	0.0000000E+000	-1.0010184E+002	9.1274520E-003	5.0851172E-003	1.0448387E-002	2.9123203E+001	7.912890565348789E-007
5.0116035E+003	8.4616066E+001	5.1608345E+001	9.9112564E+001	-3.1379511E+001	2.795070463427692E+001	-9.7727468E-003	1.8797731E-003	6.1535180E-001	1.6684221E-001	1.000000000000000E+000	11	1.3082311E-001	1.3199447E-003	9.971914472646960E-006	0.0000000E+000	-1.0006977E+002	8.6138127E-003	5.2536665E-003	1.0089538E-002	3.1379511E+001	2.567091517978249E-007
4.4664292E+003	8.5776070E+001	5.7174168E+001	1.0308453E+002	-3.3685501E+001	2.871069123037159E+001	-9.7753005E-003	1.8760520E-003	6.2324643E-001	1.9172227E-001	1.000000000000000E+000	11	1.3070978E-001	1.2679865E-003	1.026154095067694E-005	0.0000000E+000	-1.0006175E+002	8.0719627E-003	5.3803795E-003	9.7007770E-003	3.3685501E+001	2.896264780299836E-007
3.9812742E+003	8.7092674E+001	6.3305176E+001	1.0766930E+002	-3.6012333E+001	2.947066633313807E+001	-9.7605921E-003	2.0083685E-003	6.3147885E-001	2.1829985E-001	1.000000000000000E+000	11	1.3048294E-001	1.2118862E-003	1.147894595705212E-005	0.0000000E+000	-1.0006175E+002	7.5127305E-003	5.4607894E-003	9.2876982E-003	3.6012333E+001	1.217405006375176E-006
3.5465955E+003	8.8611176E+001	7.0083443E+001	1.1297623E+002	-3.8340816E+001	3.023093900922686E+001	-9.7682914E-003	1.9373760E-003	6.4031404E-001	2.4640512E-001	1.000000000000000E+000	11	1.3018513E-001	1.1523231E-003	1.241467750070377E-005	0.0000000E+000	-1.0004572E+002	6.9424747E-003	5.4908711E-003	8.8514192E-003	3.8340816E+001	9.357315436516529E-007
3.1610112E+003	9.0327339E+001	7.7513901E+001	1.1902702E+002	-4.0634361E+001	3.099070128533640E+001	-9.7614499E-003	2.0408924E-003	6.4955288E-001	2.7547523E-001	1.000000000000000E+000	11	1.2983999E-001	1.0908446E-003	1.344410897096774E-005	0.0000000E+000	-1.0004572E+002	6.3757026E-003	5.4712738E-003	8.4014535E-003	4.0634361E+001	1.029431470263970E-006
2.8172952E+003	9.2265083E+001	8.5684280E+001	1.2591521E+002	-4.2882092E+001	3.175093145476421E+001	-9.7682355E-003	1.9057791E-003	6.5930539E-001	3.0530402E-001	1.000000000000000E+000	11	1.2947507E-001	1.0282719E-003	1.458629812100035E-005	0.0000000E+000	-1.0007779E+002	5.8194371E-003	5.4043657E-003	7.9418523E-003	4.2882092E+001	1.142189150032612E-006
2.5108032E+003	9.4463257E+001	9.4671295E+001	1.3373840E+002	-4.5063023E+001	3.251069370420009E+001	-9.7693913E-003	1.8868237E-003	6.6955942E-001	3.3551621E-001	1.000000000000000E+000	11	1.2911820E-001	9.6545351E-004	1.473493702767559E-005	0.0000000E+000	-1.0003770E+002	5.2814195E-003	5.2930508E-003	7.4772839E-003	4.5063023E+001	1.486389066752369E-007
2.2378516E+003	9.6923302E+001	1.0453922E+002	1.4255727E+002	-4.7164928E+001	3.327095862029819E+001	-9.7784894E-003	1.9122835E-003	6.8031436E-001	3.6583847E-001	1.000000000000000E+000	11	1.2876357E-001	9.0324105E-004	1.439770921137824E-005	0.0000000E+000	-1.0008581E+002	4.7692433E-003	5.1439949E-003	7.0147249E-003	4.7164928E+001	-3.372278162973501E-007
1.9956389E+003	9.9674202E+001	1.1528239E+002	1.5239743E+002	-4.9153008E+001	3.403068668305787E+001	-9.7626243E-003	2.0972006E-003	6.9179147E-001	3.9586389E-001	1.000000000000000E+000	11	1.2843810E-001	8.4278389E-004	1.549004997740849E-005	0.0000000E+000	-1.0009383E+002	4.2916816E-003	4.9637249E-003	6.5617906E-003	4.9153008E+001	1.092340766030247E-006
1.7782927E+003	1.0275691E+002	1.2718221E+002	1.6350626E+002	-5.1063507E+001	3.479092333247536E+001	-9.7806323E-003	1.8803155E-003	7.0370477E-001	4.2576945E-001	1.000000000000000E+000	11	1.2813760E-001	7.8368624E-004	1.543450941702273E-005	0.0000000E+000	-1.0006977E+002	3.8436365E-003	4.7572679E-003	6.1159739E-003	5.1063507E+001	-5.554056038575522E-008
1.5855076E+003	1.0615968E+002	1.4016412E+002	1.7582906E+002	-5.2859875E+001	3.555067323525873E+001	-9.7665386E-003	2.0026020E-003	7.1616805E-001	4.5510057E-001	1.000000000000000E+000	11	1.2787046E-001	7.2724302E-004	1.532479409234818E-005	0.0000000E+000	-1.0010184E+002	3.4338261E-003	4.5337291E-003	5.6873420E-003	5.2859875E+001	-1.097153246745534E-007
1.4118373E+003	1.0999201E+002	1.5456299E+002	1.8970493E+002	-5.4563118E+001	3.631220937802573E+001	-9.7713862E-003	1.9122780E-003	7.2933990E-001	4.8415428E-001	1.000000000000000E+000	11	1.2762544E-001	6.7275763E-004	1.538998420689151E-005	0.0000000E+000	-1.0002968E+002	3.0563560E-003	4.2948527E-003	5.2713444E-003	5.4563118E+001	6.519011454333368E-008
1.2587914E+003	1.1418774E+002	1.7020074E+002	2.0495642E+002	-5.6142326E+001	3.707195696083363E+001	-9.7716656E-003	1.9360604E-003	7.4285650E-001	5.1227689E-001	1.000000000000000E+000	11	1.2741515E-001	6.2166946E-004	1.532755106803638E-005	0.0000000E+000	-1.0006977E+002	2.7182938E-003	4.0517105E-003	4.8790858E-003	5.6142326E+001	-6.243313885513583E-008
1.1217948E+003	1.1882204E+002	1.8743391E+002	2.2192375E+002	-5.7627712E+001	3.783044017016073E+001	-9.7671915E-003	1.9853092E-003	7.5693488E-001	5.3994220E-001	1.000000000000000E+000	11	1.2723823E-001	5.7334208E-004	1.596379830375534E-005	0.0000000E+000	-1.0009383E+002	2.4126230E-003	3.8057528E-003	4.5060520E-003	5.7627712E+001	6.362472357189602E-007
1.0003201E+003	1.2393909E+002	2.0623621E+002	2.4061227E+002	-5.8995945E+001	3.858966340626648E+001	-9.7650662E-003	1.9003761E-003	7.7146500E-001	5.6677479E-001	1.000000000000000E+000	11	1.2708570E-001	5.2817632E-004	1.594724470478185E-005	0.0000000E+000	-1.0010986E+002	2.1407832E-003	3.5622905E-003	4.1560638E-003	5.8995945E+001	-1.655359897348777E-008
8.9142657E+002	1.2953218E+002	2.2697208E+002	2.6133295E+002	-6.0286747E+001	3.934845184223377E+001	-9.7723184E-003	1.9401484E-003	7.8661478E-001	5.9336048E-001	1.000000000000000E+000	11	1.2694958E-001	4.8577719E-004	1.603019325398782E-005	0.0000000E+000	-1.0006175E+002	1.8966594E-003	3.3234113E-003	3.8265362E-003	6.0286747E+001	8.294854920596825E-008
7.9423773E+002	1.3570432E+002	2.4979224E+002	2.8427420E+002	-6.1486149E+001	4.010796049170312E+001	-9.7735859E-003	1.9167309E-003	8.0221480E-001	6.1940354E-001	1.000000000000000E+000	11	1.2683362E-001	4.4616646E-004	1.674122574650392E-005	0.0000000E+000	-1.0005373E+002	1.6792632E-003	3.0910359E-003	3.5177304E-003	6.1486149E+001	7.110324925160974E-007
7.0750946E+002	1.4244777E+002	2.7497119E+002	3.0967810E+002	-6.2613758E+001	4.112244365984225E+001	-9.7724302E-003	1.6724231E-004	8.1808925E-001	6.4499164E-001	1.000000000000000E+000	12	1.3099319E-001	4.2299789E-004	1.627497771511521E-005	0.0000000E+000	-1.0010184E+002	1.4853701E-003	2.8672544E-003	3.2291596E-003	6.2613758E+001	-4.662480313887103E-007
6.3100964E+002	1.4977910E+002	3.0228171E+002	3.3735443E+002	-6.3641811E+001	4.188042937582941E+001	-9.7785443E-003	1.9212000E-004	8.3439612E-001	6.6992033E-001	1.000000000000000E+000	12	1.3015954E-001	3.8582433E-004	1.639905991056003E-005	0.0000000E+000	-1.0010184E+002	1.3160681E-003	2.6560670E-003	2.9642414E-003	6.3641811E+001	1.240821954448212E-007
5.6233929E+002	1.5784729E+002	3.3249399E+002	3.6805981E+002	-6.4604568E+001	4.263691922515864E+001	-9.7776502E-003	1.8859448E-004	8.5121232E-001	6.9465423E-001	1.000000000000000E+000	12	1.2946516E-001	3.5175032E-004	1.676773313524447E-005	0.0000000E+000	-1.0004572E+002	1.1651994E-003	2.4544094E-003	2.7169497E-003	6.4604568E+001	3.686732246844456E-007
5.0144415E+002	1.6661728E+002	3.6553281E+002	4.0171576E+002	-6.5495537E+001	4.339416992777842E+001	-9.7751701E-003	1.7154893E-004	8.6830276E-001	7.1892929E-001	1.000000000000000E+000	12	1.2889695E-001	3.2086606E-004	1.662871594146580E-005	0.0000000E+000	-1.0006175E+002	1.0324816E-003	2.2651064E-003	2.4893223E-003	6.5495537E+001	-1.390171937786747E-007
4.4685895E+002	1.7617181E+002	4.0206796E+002	4.3897055E+002	-6.6338684E+001	4.415094175038394E+001	-9.7749280E-003	1.7893323E-004	8.8582963E-001	7.4315327E-001	1.000000000000000E+000	12	1.2842636E-001	2.9256259E-004	1.694286443815226E-005	0.0000000E+000	-1.0006175E+002	9.1425143E-004	2.0865495E-003	2.2780572E-003	6.6338684E+001	3.141484966864582E-007
3.9808920E+002	1.8665457E+002	4.4240289E+002	4.8016690E+002	-6.7124596E+001	4.491369125330675E+001	-9.7741261E-003	1.8044254E-004	9.0369475E-001	7.6713753E-001	1.000000000000000E+000	12	1.2803423E-001	2.6664528E-004	1.693871978654392E-005	0.0000000E+000	-1.0006977E+002	8.0956944E-004	1.9188168E-003	2.0826091E-003	6.7124596E+001	-4.144651608337335E-009
3.5465955E+002	1.9805948E+002	4.8679892E+002	5.2554803E+002	-6.7860512E+001	4.567294894269435E+001	-9.7836154E-003	1.7363399E-004	9.2184705E-001	7.9092127E-001	1.000000000000000E+000	12	1.2771645E-001	2.4301576E-004	1.681031427056304E-005	0.0000000E+000	-1.0006977E+002	7.1708520E-004	1.7624823E-003	1.9027756E-003	6.7860512E+001	-1.284055159808812E-007
3.1631586E+002	2.1025552E+002	5.3514758E+002	5.7496985E+002	-6.8550507E+001	4.642993919196306E+001	-9.7769415E-003	1.9230162E-004	9.4021153E-001	8.1448406E-001	1.000000000000000E+000	12	1.2745124E-001	2.2166595E-004	1.703482711859275E-005	0.0000000E+000	-1.0002968E+002	6.3600013E-004	1.6187637E-003	1.7392216E-003	6.8550507E+001	2.245128480297158E-007
2.8189429E+002	2.2365834E+002	5.8882660E+002	6.2987286E+002	-6.9201355E+001	4.718439432114246E+001	-9.7729517E-003	1.7419300E-004	9.5884061E-001	8.3794492E-001	1.000000000000000E+000	12	1.2724037E-001	2.0200961E-004	1.684250456279753E-005	0.0000000E+000	-1.0010184E+002	5.6374050E-004	1.4841631E-003	1.5876220E-003	6.9201355E+001	-1.923225557952221E-007
2.5104436E+002	2.3832397E+002	6.4828754E+002	6.9070618E+002	-6.9815521E+001	4.794092038375675E+001	-9.7759534E-003	1.7389438E-004	9.7791696E-001	8.6149079E-001	1.000000000000000E+000	12	1.2706599E-001	1.8396533E-004	1.709119550476438E-005	0.0000000E+000	-1.0006977E+002	4.9955247E-004	1.3588796E-003	1.4477937E-003	6.9815521E+001	2.486909419668440E-007
2.2392513E+002	2.5383823E+002	7.1301318E+002	7.5684979E+002	-7.0403877E+001	4.870370431332412E+001	-9.7699510E-003	1.8469199E-004	9.9682695E-001	8.8469893E-001	1.000000000000000E+000	12	1.2691830E-001	1.6769285E-004	1.729969086343100E-005	0.0000000E+000	-1.0011788E+002	4.4313658E-004	1.2447386E-003	1.3212662E-003	7.0403877E+001	2.084953586666243E-007
1.9955299E+002	2.7096442E+002	7.8502454E+002	8.3047290E+002	-7.0957024E+001	4.946520645610872E+001	-9.7733811E-003	1.8890646E-004	1.0159647E+000	9.0780836E-001	1.000000000000000E+000	12	1.2680474E-001	1.5268980E-004	1.733256629880877E-005	0.0000000E+000	-1.0006175E+002	3.9288131E-004	1.1382360E-003	1.2041333E-003	7.0957024E+001	3.287543537776661E-008
1.7778128E+002	2.8931741E+002	8.6454626E+002	9.1167145E+002	-7.1497360E+001	5.023326526590972E+001	-9.7724115E-003	2.0899094E-004	1.0354899E+000	9.3120575E-001	1.000000000000000E+000	12	1.2671129E-001	1.3898789E-004	1.727497736214193E-005	0.0000000E+000	-1.0010986E+002	3.4809508E-004	1.0401872E-003	1.0968863E-003	7.1497360E+001	-5.758893666683916E-008
1.5842838E+002	3.0933600E+002	9.5215155E+002	1.0011400E+003	-7.2002007E+001	5.099971802237997E+001	-9.7653084E-003	1.6904331E-004	1.0550696E+000	9.5434105E-001	1.000000000000000E+000	12	1.2662740E-001	1.2648321E-004	1.738108647492279E-005	0.0000000E+000	-1.0005373E+002	3.0863183E-004	9.4998436E-004	9.9886127E-004	7.2002007E+001	1.061091127808650E-007
1.4131134E+002	3.3087918E+002	1.0482791E+003	1.0992588E+003	-7.2482201E+001	5.175287819147343E+001	-9.7736418E-003	1.9272775E-004	1.0744005E+000	9.7705752E-001	1.000000000000000E+000	12	1.2656914E-001	1.1514044E-004	1.731842907942943E-005	0.0000000E+000	-1.0006175E+002	2.7382275E-004	8.6751499E-004	9.0970390E-004	7.2482201E+001	-6.265739549336194E-008
1.2584569E+002	3.5396259E+002	1.1557921E+003	1.2087783E+003	-7.2972740E+001	5.250840070730192E+001	-9.7647309E-003	1.7590598E-004	1.0942135E+000	1.0003873E+000	1.000000000000000E+000	12	1.2651017E-001	1.0465954E-004	1.745253832382514E-005	0.0000000E+000	-1.0011788E+002	2.4225010E-004	7.9101813E-004	8.2728156E-004	7.2972740E+001	1.341092443957077E-007
1.1218996E+002	3.7926193E+002	1.2736123E+003	1.3288822E+003	-7.3417290E+001	5.325384052943264E+001	-9.7730076E-003	1.7450728E-004	1.1138557E+000	1.0231291E+000	1.000000000000000E+000	12	1.2647042E-001	9.5170522E-005	1.759874513406996E-005	0.0000000E+000	-1.0008581E+002	2.1476633E-004	7.2121422E-004	7.5251213E-004	7.3417290E+001	1.462068102448242E-007
1.0003201E+002	4.0617139E+002	1.4039120E+003	1.4614869E+003	-7.3864105E+001	5.401367237886734E+001	-9.7674523E-003	1.6173236E-004	1.1332905E+000	1.0457579E+000	1.000000000000000E+000	12	1.2643726E-001	8.6512759E-005	1.763941677703780E-005	0.0000000E+000	-1.0007779E+002	1.9016011E-004	6.5727939E-004	6.8423466E-004	7.3864105E+001	4.067164296783481E-008
8.9115974E+001	4.3589667E+002	1.5490298E+003	1.6091921E+003	-7.4283409E+001	5.478073846863117E+001	-9.7675454E-003	1.8584559E-004	1.1529349E+000	1.0683377E+000	1.000000000000000E+000	12	1.2641235E-001	7.8556404E-005	1.761569070872024E-005	0.0000000E+000	-1.0009383E+002	1.6833241E-004	5.9819664E-004	6.2142982E-004	7.4283409E+001	-2.372606831755307E-008
7.9415527E+001	4.6777356E+002	1.7093376E+003	1.7721871E+003	-7.4695267E+001	5.554520375825814E+001	-9.7740330E-003	1.9401385E-004	1.1724298E+000	1.0907454E+000	1.000000000000000E+000	12	1.2639061E-001	7.1318995E-005	1.773704160286636E-005	0.0000000E+000	-1.0010184E+002	1.4894179E-004	5.4426288E-004	5.6427449E-004	7.4695267E+001	1.213508941461142E-007
7.0838745E+001	5.0182364E+002	1.8853958E+003	1.9510366E+003	-7.5095497E+001	5.629636894058785E+001	-9.7667072E-003	1.8403608E-004	1.1916447E+000	1.1128099E+000	1.000000000000000E+000	12	1.2636662E-001	6.4768959E-005	1.774011212744962E-005	0.0000000E+000	-1.0003770E+002	1.3183182E-004	4.9530377E-004	5.1254802E-004	7.5095497E+001	3.070524583260358E-009
6.3082302E+001	5.3897314E+002	2.0832700E+003	2.1518611E+003	-7.5494774E+001	5.707683449768228E+001	-9.7668562E-003	1.8565834E-004	1.2110639E+000	1.1350884E+000	1.000000000000000E+000	12	1.2635364E-001	5.8718306E-005	1.777577084283661E-005	0.0000000E+000	-1.0010986E+002	1.1639614E-004	4.4990116E-004	4.6471402E-004	7.5494774E+001	3.565871538699388E-008
5.6241817E+001	5.7928223E+002	2.3009883E+003	2.3727864E+003	-7.5869232E+001	5.782134842636879E+001	-9.7661847E-003	1.8205890E-004	1.2298337E+000	1.1565328E+000	1.000000000000000E+000	12	1.2634054E-001	5.3245643E-005	1.778527384422948E-005	0.0000000E+000	-1.0010986E+002	1.0288992E-004	4.0869295E-004	4.2144544E-004	7.5869232E+001	9.503001392863046E-009
5.0144413E+001	6.2306854E+002	2.5439246E+003	2.6191157E+003	-7.6237801E+001	5.882815562080941E+001	-9.7633693E-003	2.2181992E-005	1.2476516E+000	1.1770432E+000	1.000000000000000E+000	13	1.2671658E-001	4.8381436E-005	1.784216817498337E-005	0.0000000E+000	-1.0008581E+002	9.0829402E-005	3.7084709E-004	3.8180826E-004	7.6237801E+001	5.689433075389724E-008
4.4671219E+001	6.7100543E+002	2.8122310E+003	2.8911748E+003	-7.6580002E+001	5.959222947046510E+001	-9.7624939E-003	1.5227506E-005	1.2668971E+000	1.1986561E+000	1.000000000000000E+000	13	1.2662876E-001	4.3798373E-005	1.784619380923525E-005	0.0000000E+000	-1.0008581E+002	8.0274433E-005	3.3643589E-004	3.4588017E-004	7.6580002E+001	4.025634251877855E-009
3.9808922E+001	7.2304321E+002	3.1102019E+003	3.1931406E+003	-7.6912643E+001	6.035472702671541E+001	-9.7660543E-003	2.0695921E-005	1.2854381E+000	1.2195293E+000	1.000000000000000E+000	13	1.2656060E-001	3.9635146E-005	1.781765573141820E-005	0.0000000E+000	-1.0007779E+002	7.0913375E-005	3.0503699E-004	3.1317130E-004	7.6912643E+001	-2.853807781705113E-008
3.5465305E+001	7.7984680E+002	3.4424421E+003	3.5296699E+003	-7.7235725E+001	6.110512482232298E+001	-9.7673964E-003	1.6532529E-005	1.3036163E+000	1.2399806E+000	1.000000000000000E+000	13	1.2651053E-001	3.5842029E-005	1.785436073371966E-005	0.0000000E+000	-1.0005373E+002	6.2595209E-005	2.7631118E-004	2.8331261E-004	7.7235725E+001	3.670500230145918E-008
3.1629551E+001	8.4103015E+002	3.8072046E+003	3.8989919E+003	-7.7543137E+001	6.182945293674129E+001	-9.7660171E-003	1.5782934E-005	1.3216635E+000	1.2601686E+000	1.000000000000000E+000	13	1.2646742E-001	3.2435928E-005	1.789689516747381E-005	0.0000000E+000	-1.0008581E+002	5.5323151E-005	2.5043875E-004	2.5647655E-004	7.7543137E+001	4.253443375415228E-008