EC-Lab ASCII FILE
Nb header lines : 75                          

Potentio Electrochemical Impedance Spectroscopy

Run on channel : 4 (SN 4192)
User : 
CE vs. WE compliance from -10 V to 10 V
Electrode connection : standard
Ewe ctrl range : min = -10.00 V, max = 10.00 V
Safety Limits :
	Do not start on E overload
Acquisition started on : 01/22/2020 09:36:11
Technique started on : 01/22/2020 09:36:12
Saved on :
	File : DE_49_8_30.mpr
	Directory : P:\Chemistry\Data\VMP3\Kyler\DOE\DE_49\30C\
	Host : 10.0.4.99
Device : VMP3 (SN 0183)
Address : USB
EC-Lab for windows v11.33 (software)
Internet server v11.32 (firmware)
Command interpretor v11.33 (firmware)
Electrode material : 
Initial state : 
Electrolyte : 
Comments : 
Electrode surface area : 0.001 cm²
Characteristic mass : 0.001 g
Equivalent Weight : 0.000 g/eq.
Density : 0.000 g/cm3
Record Analogic IN 1
Cycle Definition : Charge/Discharge alternance
External device configuration :
   device type : Thermostat
   device name : Other
   Analog OUT : 
      mode : E/V
      unit : T/°C
      max : 400.000 at 5.000 V
      min : -100.000 at 0.000 V
      current : 0.000
   Analog IN 1 : 
      unit : T/°C
      max : 400.000 at 5.000 V
      min : -100.000 at 0.000 V
Mode                Single sine         
E (V)               0.0000              
vs.                 Eoc                 
tE (h:m:s)          0:00:0.0000         
record              0                   
dI                  1.000               
unit dI             mA                  
dt (s)              0.000               
fi                  1.000               
unit fi             MHz                 
ff                  1.000               
unit ff             Hz                  
Nd                  20                  
Points              per decade          
spacing             Logarithmic         
Va (mV)             128.0               
pw                  0.50                
Na                  3                   
corr                0                   
E range min (V)     -10.000             
E range max (V)     10.000              
I Range             Auto                
Bandwidth           5                   
nc cycles           0                   
goto Ns'            0                   
nr cycles           0                   
inc. cycle          1                   

freq/Hz	Re(Z)/Ohm	-Im(Z)/Ohm	|Z|/Ohm	Phase(Z)/deg	time/s	<Ewe>/V	<I>/mA	Cs/µF	Cp/µF	cycle number	I Range	|Ewe|/V	|I|/A	(Q-Qo)/mA.h	Analog OUT/V	Analog IN 1/V	Re(Y)/Ohm-1	Im(Y)/Ohm-1	|Y|/Ohm-1	Phase(Y)/deg	dq/mA.h	
1.0000186E+006	7.9684738E+001	2.9838062E+002	3.0883759E+002	-7.5047684E+001	1.951480625983095E+000	-5.3834640E-003	3.1424495E-003	5.3338578E-004	4.9787736E-004	1.000000000000000E+000	11	2.0296450E-003	6.5718846E-006	9.080672039971331E-007	0.0000000E+000	-1.0016073E+002	8.3543936E-004	3.1283137E-003	3.2379478E-003	7.5047684E+001	9.080672039971331E-007
8.9124669E+005	8.9887802E+001	3.1756454E+002	3.3004099E+002	-7.4195641E+001	2.547486494324403E+000	-5.1537105E-003	3.1688784E-003	5.6232861E-004	5.2061718E-004	1.000000000000000E+000	11	2.5931154E-003	7.8569501E-006	1.443754165038222E-006	0.0000000E+000	-1.0011262E+002	8.2521100E-004	2.9153873E-003	3.0299267E-003	7.4195641E+001	5.356869610410892E-007
7.9433269E+005	1.0441884E+002	3.5785236E+002	3.7277554E+002	-7.3733124E+001	3.142481802584371E+000	-4.9769026E-003	3.5262210E-003	5.5990432E-004	5.1597273E-004	1.000000000000000E+000	11	2.3199173E-003	6.2233626E-006	2.012644812857009E-006	0.0000000E+000	-1.0012064E+002	7.5142208E-004	2.5751889E-003	2.6825794E-003	7.3733124E+001	5.688906478187870E-007
7.0794981E+005	1.2037217E+002	3.8430905E+002	4.0271939E+002	-7.2608551E+001	3.738484604196856E+000	-4.8313588E-003	3.7839925E-003	5.8497465E-004	5.3271285E-004	1.000000000000000E+000	11	6.3375680E-004	1.5736933E-006	2.633461568018295E-006	0.0000000E+000	-1.0011262E+002	7.4220012E-004	2.3696027E-003	2.4831186E-003	7.2608551E+001	6.208167551612860E-007
6.3095681E+005	1.3719580E+002	4.2599625E+002	4.4754385E+002	-7.2148392E+001	4.334484792518197E+000	-4.6819369E-003	3.8398274E-003	5.9212680E-004	5.3648191E-004	1.000000000000000E+000	11	2.7493269E-003	6.1431451E-006	3.375412842594314E-006	0.0000000E+000	-1.0012064E+002	6.8496709E-004	2.1268388E-003	2.2344179E-003	7.2148392E+001	7.419512745760183E-007
5.6234225E+005	1.5353342E+002	4.6471820E+002	4.8942365E+002	-7.1717499E+001	4.929481700790348E+000	-4.6102554E-003	4.1063456E-003	6.0901750E-004	5.4908457E-004	1.000000000000000E+000	11	7.9659671E-003	1.6276221E-005	3.994500405673736E-006	0.0000000E+000	-1.0012865E+002	6.4096303E-004	1.9400805E-003	2.0432195E-003	7.1717499E+001	6.190875630794225E-007
5.0120619E+005	2.1128708E+002	5.0131815E+002	5.4402399E+002	-6.7146378E+001	5.830478250252781E+000	-4.6186452E-003	5.6358700E-004	6.3341786E-004	5.3787464E-004	1.000000000000000E+000	12	6.3096639E-003	1.1598136E-005	4.655485343272732E-006	0.0000000E+000	-1.0012064E+002	7.1389903E-004	1.6938593E-003	1.8381543E-003	6.7146378E+001	6.609849375989954E-007
4.4668572E+005	2.3173532E+002	5.4858203E+002	5.9551953E+002	-6.7099541E+001	6.425469745154260E+000	-4.5809867E-003	5.4864737E-004	6.4949598E-004	5.5114721E-004	1.000000000000000E+000	12	1.0311785E-002	1.7315611E-005	4.702012210362631E-006	0.0000000E+000	-1.0008855E+002	6.5343169E-004	1.5468549E-003	1.6792060E-003	6.7099541E+001	4.652686708989947E-008
3.9810347E+005	2.5767996E+002	6.0141895E+002	6.5429633E+002	-6.6807129E+001	7.020477853453485E+000	-4.5066578E-003	5.7364628E-004	6.6473277E-004	5.6163262E-004	1.000000000000000E+000	12	1.5452952E-002	2.3617666E-005	4.855255717143842E-006	0.0000000E+000	-1.0015271E+002	6.0191005E-004	1.4048441E-003	1.5283595E-003	6.6807129E+001	1.532435067812106E-007
3.5480997E+005	2.8348575E+002	6.5977063E+002	7.1809570E+002	-6.6748100E+001	7.615493268327555E+000	-4.5068255E-003	5.5950769E-004	6.7987852E-004	5.7392172E-004	1.000000000000000E+000	12	2.1789439E-002	3.0343364E-005	4.941135900249113E-006	0.0000000E+000	-1.0014469E+002	5.4975168E-004	1.2794648E-003	1.3925721E-003	6.6748100E+001	8.588018310527106E-008
3.1622997E+005	3.1385989E+002	7.2190405E+002	7.8718073E+002	-6.6502197E+001	8.210482789931120E+000	-4.4731749E-003	5.8880961E-004	6.9716829E-004	5.8633753E-004	1.000000000000000E+000	12	2.9503405E-002	3.7479836E-005	5.006584555018991E-006	0.0000000E+000	-1.0013667E+002	5.0650875E-004	1.1650125E-003	1.2703564E-003	6.6502197E+001	6.544865476987834E-008
2.8183453E+005	3.4717419E+002	7.8818488E+002	8.6125800E+002	-6.6227806E+001	8.805494151514722E+000	-4.4746473E-003	5.7439157E-004	7.1646972E-004	6.0005009E-004	1.000000000000000E+000	12	3.8758595E-002	4.5002304E-005	5.193834619299499E-006	0.0000000E+000	-1.0012064E+002	4.6803773E-004	1.0625799E-003	1.1610923E-003	6.6227806E+001	1.872500642805077E-007
2.5118764E+005	3.8439832E+002	8.5729034E+002	9.3952582E+002	-6.5849129E+001	9.400473699817667E+000	-4.4867834E-003	5.7204475E-004	7.3908421E-004	6.1536441E-004	1.000000000000000E+000	12	4.9634233E-002	5.2829026E-005	5.262803718849278E-006	0.0000000E+000	-1.0015271E+002	4.3547581E-004	9.7120402E-004	1.0643667E-003	6.5849129E+001	6.896909954977894E-008
2.2387173E+005	4.2600839E+002	9.2971912E+002	1.0226733E+003	-6.5382187E+001	9.995481674704934E+000	-4.4504669E-003	6.0648832E-004	7.6466129E-004	6.3197332E-004	1.000000000000000E+000	12	6.2475249E-002	6.1090133E-005	5.226842273393332E-006	0.0000000E+000	-1.0012064E+002	4.0732796E-004	8.8895112E-004	9.7782933E-004	6.5382187E+001	-3.596144545594509E-008
1.9954350E+005	4.6854221E+002	1.0061714E+003	1.1099156E+003	-6.5030098E+001	1.059248252972611E+001	-4.4937367E-003	5.0455594E-004	7.9270313E-004	6.5144029E-004	1.000000000000000E+000	12	7.7314191E-002	6.9657719E-005	5.147704838858368E-006	0.0000000E+000	-1.0007252E+002	3.8033712E-004	8.1675546E-004	9.0096937E-004	6.5030098E+001	-7.913743453496469E-008
1.7783180E+005	5.1452924E+002	1.0875022E+003	1.2030800E+003	-6.4679794E+001	1.118749242470949E+001	-4.5321588E-003	5.0606497E-004	8.2296348E-004	6.7243743E-004	1.000000000000000E+000	12	9.4507866E-002	7.8554935E-005	5.066765502929936E-006	0.0000000E+000	-1.0015271E+002	3.5548481E-004	7.5134804E-004	8.3119993E-004	6.4679794E+001	-8.093933592843155E-008
1.5848613E+005	5.6362421E+002	1.1761160E+003	1.3041936E+003	-6.4395088E+001	1.178248341297149E+001	-4.5050890E-003	5.1604968E-004	8.5384439E-004	6.9437630E-004	1.000000000000000E+000	12	1.1443018E-001	8.7740184E-005	5.060729130856796E-006	0.0000000E+000	-1.0011262E+002	3.3136419E-004	6.9145829E-004	7.6675735E-004	6.4395088E+001	-6.036372073140277E-009
1.4125594E+005	6.1426752E+002	1.2701826E+003	1.4109176E+003	-6.4191330E+001	1.224248066145810E+001	-4.4932128E-003	5.5475882E-004	8.8704826E-004	7.1891287E-004	1.000000000000000E+000	12	1.3700099E-001	9.7100630E-005	5.103338272031477E-006	0.0000000E+000	-1.0013667E+002	3.0857034E-004	6.3806196E-004	7.0875860E-004	6.4191330E+001	4.260914117468132E-008
1.2590930E+005	6.6730109E+002	1.3709392E+003	1.5247180E+003	-6.4045616E+001	1.283949063645559E+001	-4.4569527E-003	5.2541948E-004	9.2202809E-004	7.4542075E-004	1.000000000000000E+000	12	1.3111725E-001	8.5994427E-005	5.203187896770639E-006	0.0000000E+000	-1.0010460E+002	2.8704022E-004	5.8971083E-004	6.5585895E-004	6.4045616E+001	9.984962473916150E-008
1.1220494E+005	7.2299579E+002	1.4832029E+003	1.6500344E+003	-6.4012810E+001	1.343448007808183E+001	-4.3588174E-003	5.1100116E-004	9.5632952E-004	7.7272096E-004	1.000000000000000E+000	12	1.3078383E-001	7.9261270E-005	5.126202143805535E-006	0.0000000E+000	-1.0008855E+002	2.6555217E-004	5.4477173E-004	6.0604798E-004	6.4012810E+001	-7.698575296510367E-008
1.0000371E+005	7.8153333E+002	1.6024729E+003	1.7828948E+003	-6.4001297E+001	1.403049106636900E+001	-4.4528330E-003	4.9747713E-004	9.9314644E-004	8.0231193E-004	1.000000000000000E+000	12	1.3042347E-001	7.3152645E-005	5.023526384449926E-006	0.0000000E+000	-1.0004044E+002	2.4586465E-004	5.0412619E-004	5.6088559E-004	6.4001297E+001	-1.026757593556087E-007
8.9129305E+004	8.4245868E+002	1.7347157E+003	1.9284645E+003	-6.4096634E+001	1.462549197467160E+001	-4.4662370E-003	5.2120897E-004	1.0293695E-003	8.3292258E-004	1.000000000000000E+000	12	1.3035408E-001	6.7594752E-005	5.212509129863116E-006	0.0000000E+000	-1.0001638E+002	2.2652977E-004	4.6644991E-004	5.1854725E-004	6.4096634E+001	1.889827454131892E-007
7.9433273E+004	9.0510675E+002	1.8762334E+003	2.0831394E+003	-6.4247047E+001	1.522147600297467E+001	-4.4724825E-003	5.4134551E-004	1.0679006E-003	8.6629915E-004	1.000000000000000E+000	12	1.3002101E-001	6.2415893E-005	5.199998973751361E-006	0.0000000E+000	-1.0017677E+002	2.0857542E-004	4.3236467E-004	4.8004469E-004	6.4247047E+001	-1.251015611175444E-008
7.0794977E+004	9.7221942E+002	2.0350763E+003	2.2553816E+003	-6.4464737E+001	1.581747560462100E+001	-4.3969797E-003	5.3920317E-004	1.1046812E-003	8.9941121E-004	1.000000000000000E+000	12	1.2982197E-001	5.7560977E-005	5.319577391655103E-006	0.0000000E+000	-1.0011262E+002	1.9112798E-004	4.0007429E-004	4.4338396E-004	6.4464737E+001	1.195784179037423E-007
6.3093828E+004	1.0401458E+003	2.2070103E+003	2.4398354E+003	-6.4765884E+001	1.641348173955339E+001	-4.4383476E-003	5.2241923E-004	1.1429545E-003	9.3522592E-004	1.000000000000000E+000	12	1.2950389E-001	5.3078944E-005	5.479961611068979E-006	0.0000000E+000	-1.0009658E+002	1.7473227E-004	3.7075180E-004	4.0986371E-004	6.4765884E+001	1.603842194138753E-007
5.6237012E+004	1.1130867E+003	2.3964917E+003	2.6423728E+003	-6.5086777E+001	1.687348525473499E+001	-4.4379183E-003	5.3579424E-004	1.1809241E-003	9.7137212E-004	1.000000000000000E+000	12	1.4059825E-001	5.3209089E-005	5.523111116476179E-006	0.0000000E+000	-1.0008054E+002	1.5941927E-004	3.4323198E-004	3.7844773E-004	6.5086777E+001	4.314950540720004E-008
5.0122477E+004	1.1913370E+003	2.6070632E+003	2.8663674E+003	-6.5441254E+001	1.746848064303049E+001	-4.3953578E-003	5.2053778E-004	1.2179685E-003	1.0075705E-003	1.000000000000000E+000	12	1.3032207E-001	4.5465931E-005	5.550291188936575E-006	0.0000000E+000	-1.0012865E+002	1.4500096E-004	3.1731301E-004	3.4887364E-004	6.5441254E+001	2.718007246039635E-008
4.4666715E+004	1.2753983E+003	2.8393491E+003	3.1126426E+003	-6.5811012E+001	1.792847714488744E+001	-4.4700215E-003	4.5899072E-004	1.2549236E-003	1.0442305E-003	1.000000000000000E+000	12	1.3741709E-001	4.4148048E-005	5.583524689804790E-006	0.0000000E+000	-1.0008054E+002	1.3163983E-004	2.9306253E-004	3.2127043E-004	6.5811012E+001	3.323350086821463E-008
3.9814063E+004	1.3673979E+003	3.0965110E+003	3.3849900E+003	-6.6174072E+001	1.852349586648052E+001	-4.3816552E-003	5.0753524E-004	1.2909548E-003	1.0802929E-003	1.000000000000000E+000	12	1.2952667E-001	3.8265011E-005	5.673300408282658E-006	0.0000000E+000	-1.0012064E+002	1.1933839E-004	2.7024510E-004	2.9542184E-004	6.6174072E+001	8.977571847786865E-008
3.5480996E+004	1.4640109E+003	3.3815732E+003	3.6848833E+003	-6.6590393E+001	1.898347863499657E+001	-4.4207117E-003	5.2288471E-004	1.3264947E-003	1.1171092E-003	1.000000000000000E+000	12	1.3347881E-001	3.6223348E-005	5.725492863969824E-006	0.0000000E+000	-1.0010460E+002	1.0781936E-004	2.4904127E-004	2.7137902E-004	6.6590393E+001	5.219245568716517E-008
3.1621143E+004	1.5694288E+003	3.6908030E+003	4.0106274E+003	-6.6963493E+001	1.944349559015245E+001	-4.3975012E-003	5.3706055E-004	1.3637090E-003	1.1548852E-003	1.000000000000000E+000	12	1.3642174E-001	3.4015062E-005	5.801685134161643E-006	0.0000000E+000	-1.0016073E+002	9.7570162E-005	2.2945431E-004	2.4933755E-004	6.6963493E+001	7.619227019181942E-008
2.8188096E+004	1.6862429E+003	4.0374036E+003	4.3753906E+003	-6.7331886E+001	1.990247427861323E+001	-4.4172439E-003	5.1701657E-004	1.3984670E-003	1.1907563E-003	1.000000000000000E+000	12	1.3847938E-001	3.1649604E-005	5.846634083926398E-006	0.0000000E+000	-1.0009658E+002	8.8081870E-005	2.1089608E-004	2.2855103E-004	6.7331886E+001	4.494894976475448E-008
2.5116910E+004	1.8468140E+003	4.4297271E+003	4.7992920E+003	-6.7368073E+001	2.052849302833783E+001	-4.3065804E-003	3.9590566E-005	1.4304640E-003	1.2186432E-003	1.000000000000000E+000	13	1.3661440E-001	2.8465531E-005	5.852549451091869E-006	0.0000000E+000	-1.0016073E+002	8.0180522E-005	1.9231919E-004	2.0836407E-004	6.7368073E+001	5.915367165471028E-009
2.2389027E+004	1.9885990E+003	4.8508701E+003	5.2426582E+003	-6.7708977E+001	2.112447758999770E+001	-4.3178783E-003	3.9247636E-005	1.4654307E-003	1.2545889E-003	1.000000000000000E+000	13	1.3049275E-001	2.4890569E-005	5.830237896872291E-006	0.0000000E+000	-1.0012865E+002	7.2350937E-005	1.7648855E-004	1.9074294E-004	6.7708977E+001	-2.231155421957801E-008
1.9948783E+004	2.1454644E+003	5.3191719E+003	5.7355562E+003	-6.8033531E+001	2.172047329830821E+001	-4.3146908E-003	3.8992406E-005	1.4998910E-003	1.2900208E-003	1.000000000000000E+000	13	1.2930377E-001	2.2544242E-005	5.848999904709570E-006	0.0000000E+000	-1.0011262E+002	6.5218417E-005	1.6169364E-004	1.7435101E-004	6.8033531E+001	1.876200783727986E-008
1.7786895E+004	2.3215562E+003	5.8326758E+003	6.2777168E+003	-6.8296158E+001	2.218049510681885E+001	-4.3134782E-003	3.7923364E-005	1.5340948E-003	1.3242940E-003	1.000000000000000E+000	13	1.3443637E-001	2.1414851E-005	5.848982176415221E-006	0.0000000E+000	-1.0004044E+002	5.8908212E-005	1.4800091E-004	1.5929359E-004	6.8296158E+001	-1.772829434896507E-011
1.5847686E+004	2.5168027E+003	6.4009204E+003	6.8779414E+003	-6.8535553E+001	2.264049104865990E+001	-4.3140561E-003	3.9729915E-005	1.5689599E-003	1.3588758E-003	1.000000000000000E+000	13	1.3564017E-001	1.9721043E-005	5.871370406530079E-006	0.0000000E+000	-1.0017677E+002	5.3202522E-005	1.3530863E-004	1.4539235E-004	6.8535553E+001	2.238823011485752E-008
1.4121879E+004	2.7343472E+003	7.0261274E+003	7.5394375E+003	-6.8735580E+001	2.309949339044397E+001	-4.3210476E-003	3.8495098E-005	1.6040269E-003	1.3930470E-003	1.000000000000000E+000	13	1.3428140E-001	1.7810533E-005	5.890864971084789E-006	0.0000000E+000	-1.0016073E+002	4.8103400E-005	1.2360560E-004	1.3263589E-004	6.8735580E+001	1.949456455470976E-008
1.2590932E+004	2.9840635E+003	7.7153828E+003	8.2723496E+003	-6.8855125E+001	2.355949237229652E+001	-4.3153805E-003	3.8476410E-005	1.6383429E-003	1.4251546E-003	1.000000000000000E+000	13	1.3168198E-001	1.5918329E-005	5.891143036686774E-006	0.0000000E+000	-1.0012064E+002	4.3606400E-005	1.1274563E-004	1.2088464E-004	6.8855125E+001	2.780656019848020E-010
1.1217711E+004	3.2638589E+003	8.4759766E+003	9.0826729E+003	-6.8939713E+001	2.401948495415854E+001	-4.3078489E-003	3.9364764E-005	1.6738870E-003	1.4577341E-003	1.000000000000000E+000	13	1.2869290E-001	1.4169055E-005	5.889549425038139E-006	0.0000000E+000	-1.0011262E+002	3.9564351E-005	1.0274540E-004	1.1009975E-004	6.8939713E+001	-1.593611648634881E-009
1.0002229E+004	3.5755449E+003	9.2953047E+003	9.9592773E+003	-6.8960190E+001	2.447848116265959E+001	-4.3142806E-003	4.2791569E-005	1.7118262E-003	1.4911841E-003	1.000000000000000E+000	13	1.2584735E-001	1.2636193E-005	5.903102074861686E-006	0.0000000E+000	-1.0014469E+002	3.6048452E-005	9.3714749E-005	1.0040889E-004	6.8960190E+001	1.355264982354709E-008
8.9149297E+003	3.9346240E+003	1.0203852E+004	1.0936172E+004	-6.8913269E+001	2.496092003892409E+001	-4.3180655E-003	4.5194087E-005	1.7495973E-003	1.5231255E-003	1.000000000000000E+000	13	1.2320403E-001	1.1265736E-005	5.917294517118838E-006	0.0000000E+000	-1.0008855E+002	3.2898231E-005	8.5316591E-005	9.1439673E-005	6.8913269E+001	1.419244225715255E-008
7.9439976E+003	4.3537715E+003	1.1206753E+004	1.2022755E+004	-6.8769081E+001	2.548698059722665E+001	-4.3054256E-003	5.1118532E-005	1.7877270E-003	1.5532910E-003	1.000000000000000E+000	13	1.2090715E-001	1.0056527E-005	5.919359976353564E-006	0.0000000E+000	-1.0020083E+002	3.0120187E-005	7.7530356E-005	8.3175612E-005	6.8769081E+001	2.065459234725227E-009
7.0822334E+003	4.8331553E+003	1.2299042E+004	1.3214606E+004	-6.8546661E+001	2.606388547798269E+001	-4.2971671E-003	5.4444841E-005	1.8271686E-003	1.5827514E-003	1.000000000000000E+000	13	1.1898152E-001	9.0037884E-006	5.935576994583900E-006	0.0000000E+000	-1.0014469E+002	2.7677204E-005	7.0430833E-005	7.5673837E-005	6.8546661E+001	1.621701823033669E-008
6.3077344E+003	5.3980674E+003	1.3512217E+004	1.4550571E+004	-6.8223518E+001	2.669854073473834E+001	-4.2797173E-003	5.3431642E-005	1.8673260E-003	1.6103239E-003	1.000000000000000E+000	13	1.1736580E-001	8.0660611E-006	5.938010648918711E-006	0.0000000E+000	-1.0011262E+002	2.5496365E-005	6.3821419E-005	6.8725822E-005	6.8223518E+001	2.433654334810600E-009
5.6210552E+003	6.0529287E+003	1.4828179E+004	1.6016018E+004	-6.7794495E+001	2.739928884801338E+001	-4.2662947E-003	5.2783504E-005	1.9094769E-003	1.6367449E-003	1.000000000000000E+000	13	1.1603563E-001	7.2449743E-006	5.952222346882233E-006	0.0000000E+000	-1.0013667E+002	2.3596987E-005	5.7806774E-005	6.2437495E-005	6.7794495E+001	1.421169796352219E-008
5.0116035E+003	6.8163853E+003	1.6251514E+004	1.7623133E+004	-6.7245323E+001	2.838069076136890E+001	-4.2576441E-003	5.0488965E-005	1.9541127E-003	1.6617704E-003	1.000000000000000E+000	13	1.2683503E-001	7.1970767E-006	5.968539916524201E-006	0.0000000E+000	-1.0005648E+002	2.1947644E-005	5.2327210E-005	5.6743600E-005	6.7245323E+001	1.631756964196781E-008
4.4664292E+003	7.7001948E+003	1.7780102E+004	1.9375887E+004	-6.6583557E+001	2.914067607746256E+001	-4.2580357E-003	5.4008964E-005	2.0041279E-003	1.6876047E-003	1.000000000000000E+000	13	1.2587345E-001	6.4963965E-006	5.976605166456364E-006	0.0000000E+000	-1.0007252E+002	2.0510610E-005	4.7359928E-005	5.1610543E-005	6.6583557E+001	8.065249932163586E-009
3.9812742E+003	8.7228408E+003	1.9419764E+004	2.1288852E+004	-6.5811653E+001	2.990070792689949E+001	-4.2666113E-003	5.1259951E-005	2.0585153E-003	1.7129217E-003	1.000000000000000E+000	13	1.2508520E-001	5.8756200E-006	5.989653057530682E-006	0.0000000E+000	-1.0008054E+002	1.9246576E-005	4.2848882E-005	4.6972942E-005	6.5811653E+001	1.304789107431772E-008
3.5465955E+003	9.9302754E+003	2.1168170E+004	2.3381654E+004	-6.4868088E+001	3.066095166964806E+001	-4.2676739E-003	5.2016090E-005	2.1199479E-003	1.7375661E-003	1.000000000000000E+000	13	1.2443332E-001	5.3218355E-006	5.999599679279855E-006	0.0000000E+000	-1.0008054E+002	1.8163973E-005	3.8719776E-005	4.2768574E-005	6.4868088E+001	9.946621749172827E-009
3.1610112E+003	1.1345936E+004	2.3029426E+004	2.5672645E+004	-6.3771858E+001	3.142067135909019E+001	-4.2592287E-003	4.9688028E-005	2.1863063E-003	1.7592842E-003	1.000000000000000E+000	13	1.2391641E-001	4.8267880E-006	6.008787106064473E-006	0.0000000E+000	-1.0001638E+002	1.7214685E-005	3.4941528E-005	3.8951966E-005	6.3771858E+001	9.187426784618238E-009
2.8172952E+003	1.2978893E+004	2.4968961E+004	2.8140730E+004	-6.2534542E+001	3.218093667516951E+001	-4.2583528E-003	5.0811072E-005	2.2624934E-003	1.7812197E-003	1.000000000000000E+000	13	1.2348982E-001	4.3882947E-006	6.023288043118858E-006	0.0000000E+000	-1.0012064E+002	1.6389544E-005	3.1530417E-005	3.5535679E-005	6.2534542E+001	1.450093705438453E-008
2.5108032E+003	1.4851352E+004	2.6930863E+004	3.0754414E+004	-6.1124928E+001	3.294069548461994E+001	-4.2531700E-003	5.2042145E-005	2.3537329E-003	1.8048570E-003	1.000000000000000E+000	13	1.2315025E-001	4.0043114E-006	6.035719511724816E-006	0.0000000E+000	-1.0010460E+002	1.5701859E-005	2.8473140E-005	3.2515658E-005	6.1124928E+001	1.243146860595836E-008
2.2378516E+003	1.6997406E+004	2.8974713E+004	3.3592348E+004	-5.9602882E+001	3.369996437401278E+001	-4.2583342E-003	4.9699174E-005	2.4545377E-003	1.8261115E-003	1.000000000000000E+000	13	1.2287471E-001	3.6578188E-006	6.043364565641847E-006	0.0000000E+000	-1.0012865E+002	1.5062667E-005	2.5676654E-005	2.9768684E-005	5.9602882E+001	7.645053917031320E-009
1.9956389E+003	1.9978822E+004	3.0855150E+004	3.6758586E+004	-5.7076797E+001	3.471066364869330E+001	-4.2667789E-003	5.3142053E-006	2.5847023E-003	1.8211607E-003	1.000000000000000E+000	14	1.2969489E-001	3.5282883E-006	6.048123243947468E-006	0.0000000E+000	-1.0006450E+002	1.4786054E-005	2.2835477E-005	2.7204529E-005	5.7076797E+001	4.758678305620254E-009
1.7782927E+003	2.2749188E+004	3.2782305E+004	3.9902445E+004	-5.5241394E+001	3.547092253810843E+001	-4.2642062E-003	4.8981201E-006	2.7300927E-003	1.8427115E-003	1.000000000000000E+000	14	1.2825005E-001	3.2140899E-006	6.051535729237634E-006	0.0000000E+000	-1.0009658E+002	1.4287851E-005	2.0589248E-005	2.5061121E-005	5.5241394E+001	3.412485290166505E-009
1.5855076E+003	2.5852615E+004	3.4568992E+004	4.3166805E+004	-5.3208817E+001	3.623067902755429E+001	-4.2700414E-003	4.8020088E-006	2.9037890E-003	1.8622532E-003	1.000000000000000E+000	14	1.2705240E-001	2.9432892E-006	6.051266564639781E-006	0.0000000E+000	-1.0010460E+002	1.3874095E-005	1.8551837E-005	2.3165949E-005	5.3208817E+001	-2.691645978529801E-010
1.4118373E+003	2.9279203E+004	3.6189965E+004	4.6550891E+004	-5.1025688E+001	3.699119642362348E+001	-4.2658467E-003	4.7928702E-006	3.1149231E-003	1.8826417E-003	1.000000000000000E+000	14	1.2605268E-001	2.7078468E-006	6.051301697613288E-006	0.0000000E+000	-1.0012865E+002	1.3511491E-005	1.6700606E-005	2.1481866E-005	5.1025688E+001	3.513297350678739E-011
1.2587914E+003	3.2937113E+004	3.7523672E+004	4.9928742E+004	-4.8724346E+001	3.775096144640702E+001	-4.2627337E-003	3.8318258E-006	3.3694657E-003	1.9031387E-003	1.000000000000000E+000	14	1.2523070E-001	2.5081886E-006	6.053992836013120E-006	0.0000000E+000	-1.0008054E+002	1.3212477E-005	1.5052342E-005	2.0028543E-005	4.8724346E+001	2.691138399831558E-009
1.1217948E+003	3.6832492E+004	3.8558973E+004	5.3323793E+004	-4.6311855E+001	3.850942225576728E+001	-4.2733788E-003	5.0374028E-006	3.6794359E-003	1.9239336E-003	1.000000000000000E+000	14	1.2456543E-001	2.3360196E-006	6.053512007628178E-006	0.0000000E+000	-1.0008054E+002	1.2953557E-005	1.3560741E-005	1.8753355E-005	4.6311855E+001	-4.808283849414824E-010
1.0003201E+003	4.0854672E+004	3.9220637E+004	5.6633582E+004	-4.3830971E+001	3.926869293185155E+001	-4.2725769E-003	5.2899445E-006	4.0566404E-003	1.9455740E-003	1.000000000000000E+000	14	1.2401748E-001	2.1898222E-006	6.052992837512787E-006	0.0000000E+000	-1.0006450E+002	1.2737778E-005	1.2228315E-005	1.7657369E-005	4.3830971E+001	-5.191701153914183E-010
8.9142657E+002	4.4945977E+004	3.9508902E+004	5.9842242E+004	-4.1316471E+001	4.002740664783050E+001	-4.2666486E-003	5.1461593E-006	4.5189713E-003	1.9697621E-003	1.000000000000000E+000	14	1.2358356E-001	2.0651560E-006	6.052668429032893E-006	0.0000000E+000	-1.0009658E+002	1.2550907E-005	1.1032635E-005	1.6710605E-005	4.1316471E+001	-3.244084798935518E-010
7.9423773E+002	4.9056766E+004	3.9407031E+004	6.2924402E+004	-3.8774723E+001	4.078695367061300E+001	-4.2581288E-003	4.1873523E-006	5.0850580E-003	1.9943672E-003	1.000000000000000E+000	14	1.2322340E-001	1.9582769E-006	6.053702191200235E-006	0.0000000E+000	-1.0005648E+002	1.2389698E-005	9.9525769E-006	1.5892087E-005	3.8774723E+001	1.033762167342309E-009
7.0750946E+002	5.2996133E+004	3.8969594E+004	6.5781602E+004	-3.6328125E+001	4.154944394677295E+001	-4.2624916E-003	4.9470573E-006	5.7724742E-003	2.0258387E-003	1.000000000000000E+000	14	1.2294266E-001	1.8689520E-006	6.054625101424790E-006	0.0000000E+000	-1.0009658E+002	1.2247157E-005	9.0056901E-006	1.5201819E-005	3.6328125E+001	9.229102245549513E-010
6.3100964E+002	5.6784934E+004	3.8185059E+004	6.8429727E+004	-3.3918880E+001	4.230740614279057E+001	-4.2651757E-003	4.3881287E-006	6.6052717E-003	2.0567807E-003	1.000000000000000E+000	14	1.2271366E-001	1.7932799E-006	6.055109489390171E-006	0.0000000E+000	-1.0012865E+002	1.2126724E-005	8.1546223E-006	1.4613532E-005	3.3918880E+001	4.843879653808610E-010
5.6233929E+002	6.0346070E+004	3.7148301E+004	7.0863563E+004	-3.1615942E+001	4.306391097875894E+001	-4.2674690E-003	4.0808172E-006	7.6187332E-003	2.0937012E-003	1.000000000000000E+000	14	1.2252689E-001	1.7290536E-006	6.057360505263887E-006	0.0000000E+000	-1.0010460E+002	1.2017193E-005	7.3976362E-006	1.4111624E-005	3.1615942E+001	2.251015873716007E-009
5.0144415E+002	6.3555488E+004	3.5924207E+004	7.3005813E+004	-2.9476942E+001	4.382115800140309E+001	-4.2778528E-003	5.0344074E-006	8.8350773E-003	2.1392910E-003	1.000000000000000E+000	14	1.2238297E-001	1.6763455E-006	6.057073009869567E-006	0.0000000E+000	-1.0008054E+002	1.1924445E-005	6.7401929E-006	1.3697540E-005	2.9476942E+001	-2.874953943199661E-010
4.4685895E+002	6.6532977E+004	3.4511535E+004	7.4951203E+004	-2.7416368E+001	4.457789414402214E+001	-4.2748144E-003	4.6894756E-006	1.0320135E-002	2.1880474E-003	1.000000000000000E+000	14	1.2226558E-001	1.6312691E-006	6.059774973330288E-006	0.0000000E+000	-1.0004846E+002	1.1843491E-005	6.1433761E-006	1.3342014E-005	2.7416368E+001	2.701963460721143E-009
3.9808920E+002	6.9184461E+004	3.3147672E+004	7.6715430E+004	-2.5600021E+001	4.534069850025844E+001	-4.2681587E-003	4.5173797E-006	1.2061093E-002	2.2517869E-003	1.000000000000000E+000	14	1.2217110E-001	1.5925233E-006	6.060950659068630E-006	0.0000000E+000	-1.0007252E+002	1.1755554E-005	5.6323229E-006	1.3035187E-005	2.5600021E+001	1.175685738341553E-009
3.5465955E+002	7.1568000E+004	3.1731730E+004	7.8287172E+004	-2.3911482E+001	4.610093976301141E+001	-4.2768088E-003	4.6030532E-006	1.4142127E-002	2.3233842E-003	1.000000000000000E+000	14	1.2209938E-001	1.5596346E-006	6.062422303666254E-006	0.0000000E+000	-1.0007252E+002	1.1677172E-005	5.1774100E-006	1.2773485E-005	2.3911482E+001	1.471644597624050E-009
3.1631586E+002	7.3607453E+004	3.0429256E+004	7.9649211E+004	-2.2460159E+001	4.685790915897815E+001	-4.2747208E-003	5.0796621E-006	1.6535139E-002	2.4133902E-003	1.000000000000000E+000	14	1.2203527E-001	1.5321592E-006	6.062834219551570E-006	0.0000000E+000	-1.0004846E+002	1.1602694E-005	4.7965436E-006	1.2555052E-005	2.2460159E+001	4.119158853156072E-010
2.8189429E+002	7.5332930E+004	2.9188963E+004	8.0790133E+004	-2.1179665E+001	4.761338882151176E+001	-4.2718500E-003	5.3562408E-006	1.9342614E-002	2.5248516E-003	1.000000000000000E+000	14	1.2198361E-001	1.5098825E-006	6.063631075882161E-006	0.0000000E+000	-1.0006450E+002	1.1541658E-005	4.4720023E-006	1.2377749E-005	2.1179665E+001	7.968563305915438E-010
2.5104436E+002	7.7074930E+004	2.8070211E+004	8.2027320E+004	-2.0011311E+001	4.836993288411759E+001	-4.2707874E-003	4.7755179E-006	2.2585202E-002	2.6448332E-003	1.000000000000000E+000	14	1.2195017E-001	1.4867019E-006	6.063007472570664E-006	0.0000000E+000	-1.0007252E+002	1.1455026E-005	4.1718495E-006	1.2191060E-005	2.0011311E+001	-6.236033114970102E-010
2.2392513E+002	7.8541133E+004	2.7102070E+004	8.3085688E+004	-1.9037941E+001	4.913272342703567E+001	-4.2720363E-003	4.9181840E-006	2.6224962E-002	2.7904056E-003	1.000000000000000E+000	14	1.2191518E-001	1.4673428E-006	6.062666315029383E-006	0.0000000E+000	-1.0009658E+002	1.1377444E-005	3.9259976E-006	1.2035767E-005	1.9037941E+001	-3.411575412810822E-010
1.9955299E+002	7.9824078E+004	2.6373680E+004	8.4068156E+004	-1.8283428E+001	4.989419095651829E+001	-4.2769210E-003	4.7907870E-006	3.0240653E-002	2.9762511E-003	1.000000000000000E+000	14	1.2189136E-001	1.4499111E-006	6.063602228798585E-006	0.0000000E+000	-1.0008855E+002	1.1294601E-005	3.7317081E-006	1.1895110E-005	1.8283428E+001	9.359137692020590E-010
1.7778128E+002	8.1102773E+004	2.5782383E+004	8.5102242E+004	-1.7635338E+001	5.066223808631185E+001	-4.2808172E-003	4.3707987E-006	3.4722507E-002	3.1869493E-003	1.000000000000000E+000	14	1.2187365E-001	1.4320850E-006	6.065656618747110E-006	0.0000000E+000	-1.0008054E+002	1.1198342E-005	3.5599264E-006	1.1750572E-005	1.7635338E+001	2.054389948524416E-009
1.5842838E+002	8.2180656E+004	2.5463771E+004	8.6035250E+004	-1.7215656E+001	5.142873268274707E+001	-4.2787665E-003	4.4611284E-006	3.9451584E-002	3.4558673E-003	1.000000000000000E+000	14	1.2184912E-001	1.4162697E-006	6.066014078108209E-006	0.0000000E+000	-1.0007252E+002	1.1102397E-005	3.4400909E-006	1.1623143E-005	1.7215656E+001	3.574593610994415E-010
1.4131134E+002	8.3225773E+004	2.5406234E+004	8.7017273E+004	-1.6975796E+001	5.218188949185424E+001	-4.2757648E-003	4.5101096E-006	4.4330519E-002	3.7789617E-003	1.000000000000000E+000	14	1.2183579E-001	1.4001334E-006	6.068338949704721E-006	0.0000000E+000	-1.0005648E+002	1.0991245E-005	3.3552844E-006	1.1491971E-005	1.6975796E+001	2.324871596512019E-009
1.2584569E+002	8.4328234E+004	2.5336545E+004	8.8052211E+004	-1.6722973E+001	5.293639662096393E+001	-4.2643556E-003	4.2774859E-006	4.9915381E-002	4.1328403E-003	1.000000000000000E+000	14	1.2182328E-001	1.3835346E-006	6.067739491420310E-006	0.0000000E+000	-1.0013667E+002	1.0876583E-005	3.2678856E-006	1.1356899E-005	1.6722973E+001	-5.994582844107786E-010
1.1218996E+002	8.5289766E+004	2.5517342E+004	8.9025156E+004	-1.6656347E+001	5.368183772309567E+001	-4.2711417E-003	5.3718786E-006	5.5594359E-002	4.5674741E-003	1.000000000000000E+000	14	1.2182266E-001	1.3684072E-006	6.067958088217337E-006	0.0000000E+000	-1.0012064E+002	1.0761465E-005	3.2196594E-006	1.1232780E-005	1.6656347E+001	2.185967970263724E-010
1.0003201E+002	8.6353094E+004	2.5952826E+004	9.0168766E+004	-1.6727787E+001	5.444168159920082E+001	-4.2758025E-003	4.1994458E-006	6.1305083E-002	5.0787115E-003	1.000000000000000E+000	14	1.2180548E-001	1.3508611E-006	6.069779124408797E-006	0.0000000E+000	-1.0006450E+002	1.0621006E-005	3.1920699E-006	1.1090315E-005	1.6727787E+001	1.821036191460149E-009
8.9115974E+001	8.7496914E+004	2.6598518E+004	9.1450484E+004	-1.6908947E+001	5.520873054229014E+001	-4.2645792E-003	4.6492351E-006	6.7143992E-002	5.6800214E-003	1.000000000000000E+000	14	1.2180040E-001	1.3318727E-006	6.072272642769197E-006	0.0000000E+000	-1.0011262E+002	1.0462145E-005	3.1804273E-006	1.0934879E-005	1.6908947E+001	2.493518360400628E-009
7.9415527E+001	8.8640094E+004	2.7327703E+004	9.2757047E+004	-1.7134508E+001	5.597320687191677E+001	-4.2728754E-003	4.3758223E-006	7.3335044E-002	6.3653751E-003	1.000000000000000E+000	14	1.2179351E-001	1.3130378E-006	6.071895441107977E-006	0.0000000E+000	-1.0008054E+002	1.0302352E-005	3.1762106E-006	1.0780852E-005	1.7134508E+001	-3.772016612199833E-010
7.0838745E+001	8.9835508E+004	2.8320902E+004	9.4193906E+004	-1.7497608E+001	5.672436042755726E+001	-4.2736586E-003	5.0995809E-006	7.9330862E-002	7.1715121E-003	1.000000000000000E+000	14	1.2178843E-001	1.2929545E-006	6.073458022215871E-006	0.0000000E+000	-1.0006450E+002	1.0125172E-005	3.1919897E-006	1.0616398E-005	1.7497608E+001	1.562581107893165E-009
6.3082302E+001	9.1148320E+004	2.9568439E+004	9.5824367E+004	-1.7973019E+001	5.750482403801288E+001	-4.2727636E-003	4.8822276E-006	8.5326552E-002	8.1243590E-003	1.000000000000000E+000	14	1.2178943E-001	1.2709652E-006	6.075101151293287E-006	0.0000000E+000	-1.0008054E+002	9.9265135E-006	3.2201526E-006	1.0435759E-005	1.7973019E+001	1.643129077416457E-009
5.6241817E+001	9.2555813E+004	3.0860086E+004	9.7564969E+004	-1.8439489E+001	5.824833703329205E+001	-4.2768652E-003	5.0571130E-006	9.1698803E-002	9.1742408E-003	1.000000000000000E+000	14	1.2178621E-001	1.2482575E-006	6.075900167868462E-006	0.0000000E+000	-1.0002441E+002	9.7233487E-006	3.2419725E-006	1.0249581E-005	1.8439489E+001	7.990165751750605E-010
5.0144413E+001	9.4062234E+004	3.2309686E+004	9.9456625E+004	-1.8957218E+001	5.900515493590501E+001	-4.2791953E-003	4.3933260E-006	9.8234676E-002	1.0367233E-002	1.000000000000000E+000	14	1.2177411E-001	1.2243942E-006	6.076898107938948E-006	0.0000000E+000	-1.0016073E+002	9.5092846E-006	3.2663690E-006	1.0054634E-005	1.8957218E+001	9.979400704860725E-010
4.4671219E+001	9.5705234E+004	3.4001051E+004	1.0156556E+005	-1.9558521E+001	5.976922526551061E+001	-4.2727822E-003	4.5425068E-006	1.0478520E-001	1.1743342E-002	1.000000000000000E+000	14	1.2177617E-001	1.1989907E-006	6.078448220326663E-006	0.0000000E+000	-1.0008054E+002	9.2777509E-006	3.2960925E-006	9.8458568E-006	1.9558521E+001	1.550112387715349E-009
3.9808922E+001	9.7418086E+004	3.5828469E+004	1.0379770E+005	-2.0192535E+001	6.053169556845387E+001	-4.2801648E-003	5.2513683E-006	1.1158645E-001	1.3295127E-002	1.000000000000000E+000	14	1.2177164E-001	1.1731631E-006	6.078051004080610E-006	0.0000000E+000	-1.0011262E+002	9.0419917E-006	3.3254678E-006	9.6341246E-006	2.0192535E+001	-3.972162460538493E-010
3.5465305E+001	9.9277852E+004	3.7813027E+004	1.0623520E+005	-2.0850876E+001	6.128212997739320E+001	-4.2856829E-003	4.5177349E-006	1.1867930E-001	1.5035610E-002	1.000000000000000E+000	14	1.2177079E-001	1.1462378E-006	6.081403127289782E-006	0.0000000E+000	-1.0011262E+002	8.7966137E-006	3.3504612E-006	9.4130764E-006	2.0850876E+001	3.352123209172151E-009
3.1629551E+001	1.0126131E+005	3.9978660E+004	1.0886756E+005	-2.1544447E+001	6.200644726512837E+001	-4.2883675E-003	5.0567360E-006	1.2586322E-001	1.6972989E-002	1.000000000000000E+000	14	1.2176985E-001	1.1185136E-006	6.082797305916478E-006	0.0000000E+000	-1.0012064E+002	8.5437114E-006	3.3731158E-006	9.1854727E-006	2.1544447E+001	1.394178626696334E-009
2.8170074E+001	1.0338611E+005	4.2275773E+004	1.1169570E+005	-2.2240219E+001	6.281175546340819E+001	-4.2841728E-003	5.1837569E-006	1.3364126E-001	1.9144800E-002	1.000000000000000E+000	14	1.2176815E-001	1.0901776E-006	6.081120685926357E-006	0.0000000E+000	-1.0006450E+002	8.2868473E-006	3.3885874E-006	8.9528967E-006	2.2240219E+001	-1.676619990120863E-009
2.5104435E+001	1.0566777E+005	4.4749719E+004	1.1475284E+005	-2.2952389E+001	6.356791579266428E+001	-4.2809290E-003	5.3143153E-006	1.4167048E-001	2.1544335E-002	1.000000000000000E+000	14	1.2176022E-001	1.0610649E-006	6.081526891878891E-006	0.0000000E+000	-1.0008855E+002	8.0244563E-006	3.3983129E-006	8.7143808E-006	2.2952389E+001	4.062059525338518E-010
2.2385387E+001	1.0806264E+005	4.7497789E+004	1.1804056E+005	-2.3727381E+001	6.425442094521713E+001	-4.2919470E-003	4.7030494E-006	1.4968632E-001	2.4236303E-002	1.000000000000000E+000	14	1.2176025E-001	1.0315119E-006	6.085220097548510E-006	0.0000000E+000	-1.0004044E+002	7.7555578E-006	3.4088732E-006	8.4716639E-006	2.3727381E+001	3.693205669618807E-009
1.9955299E+001	1.1066534E+005	5.0272805E+004	1.2154905E+005	-2.4431242E+001	6.501619482142269E+001	-4.2816564E-003	4.8580068E-006	1.5864587E-001	2.7138874E-002	1.000000000000000E+000	14	1.2176064E-001	1.0017408E-006	6.085249615232732E-006	0.0000000E+000	-1.0007252E+002	7.4904592E-006	3.4027491E-006	8.2271308E-006	2.4431242E+001	2.951768422244407E-011
1.7796129E+001	1.1334703E+005	5.3295738E+004	1.2525169E+005	-2.5182894E+001	6.586055408816901E+001	-4.2783283E-003	5.9618988E-006	1.6780393E-001	3.0382248E-002	1.000000000000000E+000	14	1.2176722E-001	9.7218026E-007	6.086984107139591E-006	0.0000000E+000	-1.0007252E+002	7.2250855E-006	3.3972328E-006	7.9839247E-006	2.5182894E+001	1.734491906859085E-009
1.5857576E+001	1.1618416E+005	5.6609008E+004	1.2924139E+005	-2.5976973E+001	6.658290820251568E+001	-4.2807427E-003	3.8280537E-006	1.7729552E-001	3.4014620E-002	1.000000000000000E+000	14	1.2175541E-001	9.4207758E-007	6.087380182047860E-006	0.0000000E+000	-1.0012865E+002	6.9557445E-006	3.3890835E-006	7.7374589E-006	2.5976973E+001	3.960749082683235E-010
1.4118974E+001	1.1918029E+005	6.0132758E+004	1.3349116E+005	-2.6773359E+001	6.738521352058160E+001	-4.2805751E-003	4.8255993E-006	1.8745881E-001	3.8038477E-002	1.000000000000000E+000	14	1.2175531E-001	9.1208523E-007	6.091309184801781E-006	0.0000000E+000	-1.0012064E+002	6.6880489E-006	3.3744743E-006	7.4911331E-006	2.6773359E+001	3.929002753921198E-009
1.2600808E+001	1.2241363E+005	6.3791902E+004	1.3803805E+005	-2.7524815E+001	6.827587953626062E+001	-4.2753923E-003	5.7023617E-006	1.9799590E-001	4.2285327E-002	1.000000000000000E+000	14	1.2176017E-001	8.8207690E-007	6.090115322558555E-006	0.0000000E+000	-1.0006450E+002	6.4243936E-006	3.3478648E-006	7.2443795E-006	2.7524815E+001	-1.193862243225570E-009
1.1224856E+001	1.2580770E+005	6.7873969E+004	1.4294913E+005	-2.8347116E+001	6.895991116875666E+001	-4.2817681E-003	4.4536605E-006	2.0889887E-001	4.7095519E-002	1.000000000000000E+000	14	1.2174680E-001	8.5167926E-007	6.094902085968859E-006	0.0000000E+000	-1.0010460E+002	6.1566461E-006	3.3215460E-006	6.9954958E-006	2.8347116E+001	4.786763410303490E-009
1.0003201E+001	1.2938551E+005	7.2265969E+004	1.4819913E+005	-2.9184763E+001	6.972069573824410E+001	-4.2762868E-003	4.8039929E-006	2.2016452E-001	5.2350845E-002	1.000000000000000E+000	14	1.2175420E-001	8.2155816E-007	6.089304323632114E-006	0.0000000E+000	-1.0012064E+002	5.8910723E-006	3.2903533E-006	6.7476781E-006	2.9184763E+001	-5.597762336744438E-009
8.9183798E+000	1.3304788E+005	7.6781766E+004	1.5361372E+005	-2.9989193E+001	7.056500348498230E+001	-4.2750286E-003	5.0330782E-006	2.3242137E-001	5.8067385E-002	1.000000000000000E+000	14	1.2175966E-001	7.9263532E-007	6.096776901796438E-006	0.0000000E+000	-1.0005648E+002	5.6382964E-006	3.2538542E-006	6.5098352E-006	2.9989193E+001	7.472578164323314E-009
7.9395342E+000	1.3695180E+005	8.1808070E+004	1.5952541E+005	-3.0851957E+001	7.150368488959793E+001	-4.2698923E-003	4.5397996E-006	2.4503547E-001	6.4440891E-002	1.000000000000000E+000	14	1.2175652E-001	7.6324221E-007	6.091107460544676E-006	0.0000000E+000	-1.0006450E+002	5.3815579E-006	3.2146702E-006	6.2685940E-006	3.0851957E+001	-5.669441251762128E-009
7.0765405E+000	1.4104330E+005	8.7120828E+004	1.6578073E+005	-3.1703150E+001	7.206202302276506E+001	-4.2894860E-003	5.2051691E-006	2.5815299E-001	7.1294002E-002	1.000000000000000E+000	14	1.2174965E-001	7.3440168E-007	6.091363129934229E-006	0.0000000E+000	-1.0004044E+002	5.1319730E-006	3.1699608E-006	6.0320640E-006	3.1703150E+001	2.556693895536713E-010
6.3105822E+000	1.4548427E+005	9.2721844E+004	1.7251959E+005	-3.2510685E+001	7.268220547886449E+001	-4.2903996E-003	2.6546850E-006	2.7199984E-001	7.8569844E-002	1.000000000000000E+000	14	1.2175471E-001	7.0574424E-007	6.091905168115192E-006	0.0000000E+000	-1.0008855E+002	4.8880897E-006	3.1153381E-006	5.7964430E-006	3.2510685E+001	5.420381809623006E-010
5.6205034E+000	1.5002277E+005	9.9209563E+004	1.7985930E+005	-3.3476532E+001	7.336863745818118E+001	-4.2886660E-003	2.9178530E-006	2.8542459E-001	8.6842574E-002	1.000000000000000E+000	14	1.2174633E-001	6.7689763E-007	6.095726304751073E-006	0.0000000E+000	-1.0008054E+002	4.6375799E-006	3.0668161E-006	5.5599016E-006	3.3476532E+001	3.821136635881486E-009
5.0144415E+000	1.5483730E+005	1.0617951E+005	1.8774631E+005	-3.4440338E+001	7.412619568078662E+001	-4.2952653E-003	5.4711268E-006	2.9892129E-001	9.5608272E-002	1.000000000000000E+000	14	1.2174211E-001	6.4843942E-007	6.103493504612288E-006	0.0000000E+000	-1.0006450E+002	4.3927121E-006	3.0122976E-006	5.3263361E-006	3.4440338E+001	7.767199861215111E-009
4.4693937E+000	1.5986345E+005	1.1290132E+005	1.9571161E+005	-3.5231113E+001	7.496753601406817E+001	-4.2877058E-003	7.2080757E-006	3.1540784E-001	1.0496327E-001	1.000000000000000E+000	14	1.2175544E-001	6.2211660E-007	6.105203857738799E-006	0.0000000E+000	-1.0001638E+002	4.1736498E-006	2.9475818E-006	5.1095590E-006	3.5231113E+001	1.710353126510396E-009
3.9778514E+000	1.6523623E+005	1.2120078E+005	2.0492106E+005	-3.6260048E+001	7.590418893858441E+001	-4.2653717E-003	5.1390434E-006	3.3011568E-001	1.1547921E-001	1.000000000000000E+000	14	1.2175120E-001	5.9413708E-007	6.096598505881983E-006	0.0000000E+000	-1.0008054E+002	3.9348856E-006	2.8862385E-006	4.8799279E-006	3.6260048E+001	-8.605351856816012E-009
3.5511365E+000	1.7091489E+005	1.2930628E+005	2.1431756E+005	-3.7109459E+001	7.694536970803165E+001	-4.2765760E-003	3.8499275E-006	3.4660366E-001	1.2617022E-001	1.000000000000000E+000	14	1.2175404E-001	5.6810109E-007	6.099971865378620E-006	0.0000000E+000	-1.0012064E+002	3.7210407E-006	2.8151667E-006	4.6659734E-006	3.7109459E+001	3.373359496637723E-009
3.1603966E+000	1.7684159E+005	1.3895856E+005	2.2490538E+005	-3.8159550E+001	7.810724720321014E+001	-4.2843409E-003	4.4135127E-006	3.6240423E-001	1.3834523E-001	1.000000000000000E+000	14	1.2175131E-001	5.4134460E-007	6.112250278534778E-006	0.0000000E+000	-1.0009658E+002	3.4961072E-006	2.7471706E-006	4.4463145E-006	3.8159550E+001	1.227841315615753E-008
2.8183618E+000	1.8319789E+005	1.4892211E+005	2.3609164E+005	-3.9107765E+001	7.940264435811696E+001	-4.2746845E-003	6.1910469E-006	3.7919638E-001	1.5087640E-001	1.000000000000000E+000	14	1.2175959E-001	5.1573022E-007	6.101997622469601E-006	0.0000000E+000	-1.0011262E+002	3.2866938E-006	2.6717632E-006	4.2356432E-006	3.9107765E+001	-1.025265606517657E-008
2.5136740E+000	1.8987008E+005	1.5961208E+005	2.4804569E+005	-4.0051701E+001	8.084667170669854E+001	-4.2756097E-003	3.3001645E-006	3.9668471E-001	1.6425310E-001	1.000000000000000E+000	14	1.2175708E-001	4.9086555E-007	6.106117052957795E-006	0.0000000E+000	-1.0009658E+002	3.0859803E-006	2.5941938E-006	4.0315153E-006	4.0051701E+001	4.119430488193431E-009
2.2398219E+000	1.9701902E+005	1.7172055E+005	2.6135119E+005	-4.1075203E+001	8.246138599669212E+001	-4.2735324E-003	5.1560837E-006	4.1379419E-001	1.7864050E-001	1.000000000000000E+000	14	1.2175768E-001	4.6587766E-007	6.118387638931230E-006	0.0000000E+000	-1.0012064E+002	2.8844247E-006	2.5140466E-006	3.8262692E-006	4.1075203E+001	1.227058597343503E-008
1.9970604E+000	2.0444033E+005	1.8441083E+005	2.7532381E+005	-4.2051334E+001	8.426572570909775E+001	-4.2678327E-003	4.5351790E-006	4.3215793E-001	1.9387767E-001	1.000000000000000E+000	14	1.2175259E-001	4.4221596E-007	6.102957686828404E-006	0.0000000E+000	-1.0008855E+002	2.6969881E-006	2.4327578E-006	3.6320869E-006	4.2051334E+001	-1.542995210282568E-008
1.7796129E+000	2.1240131E+005	1.9835178E+005	2.9061616E+005	-4.3041000E+001	8.628386684492580E+001	-4.2653102E-003	4.6912382E-006	4.5087743E-001	2.1003476E-001	1.000000000000000E+000	14	1.2175724E-001	4.1896240E-007	6.123323737086593E-006	0.0000000E+000	-1.0004846E+002	2.5148825E-006	2.3485327E-006	3.4409650E-006	4.3041000E+001	2.036605025818934E-008
1.5846854E+000	2.2138223E+005	2.1352652E+005	3.0757709E+005	-4.3965183E+001	8.854301113891415E+001	-4.2665936E-003	4.4740341E-006	4.7035447E-001	2.2668402E-001	1.000000000000000E+000	14	1.2175732E-001	3.9585950E-007	6.115060566320077E-006	0.0000000E+000	-1.0007252E+002	2.3401019E-006	2.2570637E-006	3.2512173E-006	4.3965183E+001	-8.263170766516120E-009
1.4122382E+000	2.3019603E+005	2.2995702E+005	3.2537738E+005	-4.4970238E+001	9.107222200566321E+001	-4.2674998E-003	5.5577980E-006	4.9007833E-001	2.4478461E-001	1.000000000000000E+000	14	1.2175396E-001	3.7419309E-007	6.120134134978306E-006	0.0000000E+000	-1.0012865E+002	2.1743183E-006	2.1720607E-006	3.0733545E-006	4.4970238E+001	5.073568658228460E-009
1.2596743E+000	2.3964705E+005	2.4779842E+005	3.4472419E+005	-4.5958050E+001	9.390093454005546E+001	-4.2698123E-003	5.0426775E-006	5.0987452E-001	2.6346132E-001	1.000000000000000E+000	14	1.2175863E-001	3.5320593E-007	6.132988844320437E-006	0.0000000E+000	-1.0008855E+002	2.0166408E-006	2.0852351E-006	2.9008697E-006	4.5958050E+001	1.285470934213127E-008
1.1224856E+000	2.4997097E+005	2.6734778E+005	3.6600591E+005	-4.6923851E+001	9.706914858383243E+001	-4.2616408E-003	4.6973287E-006	5.3035021E-001	2.8296956E-001	1.000000000000000E+000	14	1.2175696E-001	3.3266394E-007	6.119302470002234E-006	0.0000000E+000	-1.0011262E+002	1.8660076E-006	1.9957238E-006	2.7321964E-006	4.6923851E+001	-1.368637431820263E-008
1.0000638E+000	2.6096502E+005	2.8842391E+005	3.8896156E+005	-4.7861309E+001	1.006182368057489E+002	-4.2629018E-003	4.8967572E-006	5.5177391E-001	3.0339631E-001	1.000000000000000E+000	14	1.2175462E-001	3.1302480E-007	6.148430905702450E-006	0.0000000E+000	-1.0007252E+002	1.7249198E-006	1.9064170E-006	2.5709480E-006	4.7861309E+001	2.912843570021523E-008