EC-Lab ASCII FILE
Nb header lines : 75                          

Potentio Electrochemical Impedance Spectroscopy

Run on channel : 3 (SN 20921)
User : 
CE vs. WE compliance from -10 V to 10 V
Electrode connection : standard
Ewe ctrl range : min = -10.00 V, max = 10.00 V
Safety Limits :
	Do not start on E overload
Acquisition started on : 01/22/2020 09:36:27
Technique started on : 01/22/2020 09:36:28
Saved on :
	File : DE_49_7_30.mpr
	Directory : P:\Chemistry\Data\VMP3\Kyler\DOE\DE_49\30C\
	Host : 10.0.4.99
Device : VMP3 (SN 0183)
Address : USB
EC-Lab for windows v11.33 (software)
Internet server v11.32 (firmware)
Command interpretor v11.33 (firmware)
Electrode material : 
Initial state : 
Electrolyte : 
Comments : 
Electrode surface area : 0.001 cm²
Characteristic mass : 0.001 g
Equivalent Weight : 0.000 g/eq.
Density : 0.000 g/cm3
Record Analogic IN 1
Cycle Definition : Charge/Discharge alternance
External device configuration :
   device type : Thermostat
   device name : Other
   Analog OUT : 
      mode : E/V
      unit : T/°C
      max : 400.000 at 5.000 V
      min : -100.000 at 0.000 V
      current : 0.000
   Analog IN 1 : 
      unit : T/°C
      max : 400.000 at 5.000 V
      min : -100.000 at 0.000 V
Mode                Single sine         
E (V)               0.0000              
vs.                 Eoc                 
tE (h:m:s)          0:00:0.0000         
record              0                   
dI                  1.000               
unit dI             mA                  
dt (s)              0.000               
fi                  1.000               
unit fi             MHz                 
ff                  1.000               
unit ff             Hz                  
Nd                  20                  
Points              per decade          
spacing             Logarithmic         
Va (mV)             128.0               
pw                  0.50                
Na                  3                   
corr                0                   
E range min (V)     -10.000             
E range max (V)     10.000              
I Range             Auto                
Bandwidth           5                   
nc cycles           0                   
goto Ns'            0                   
nr cycles           0                   
inc. cycle          1                   

freq/Hz	Re(Z)/Ohm	-Im(Z)/Ohm	|Z|/Ohm	Phase(Z)/deg	time/s	<Ewe>/V	<I>/mA	Cs/µF	Cp/µF	cycle number	I Range	|Ewe|/V	|I|/A	(Q-Qo)/mA.h	Analog OUT/V	Analog IN 1/V	Re(Y)/Ohm-1	Im(Y)/Ohm-1	|Y|/Ohm-1	Phase(Y)/deg	dq/mA.h	
1.0000186E+006	9.1073807E+001	2.9181113E+002	3.0569293E+002	-7.2666939E+001	1.646472184831509E+000	-1.7024018E-002	2.5364901E-003	5.4539379E-004	4.9698481E-004	1.000000000000000E+000	11	4.8718331E-004	1.5937015E-006	4.789099269271194E-007	0.0000000E+000	-1.0008792E+002	9.7459159E-004	3.1227057E-003	3.2712566E-003	7.2666939E+001	4.789099269271194E-007
8.9124669E+005	1.0242654E+002	3.1750134E+002	3.3361398E+002	-7.2120201E+001	2.242493519821437E+000	-1.6592564E-002	2.6015397E-003	5.6244060E-004	5.0942384E-004	1.000000000000000E+000	11	9.2620234E-004	2.7762696E-006	8.617545317834406E-007	0.0000000E+000	-1.0011197E+002	9.2028844E-004	2.8527065E-003	2.9974764E-003	7.2120201E+001	3.828446048563213E-007
7.9433269E+005	1.1640710E+002	3.4601480E+002	3.6507101E+002	-7.1405914E+001	2.838473708106903E+000	-1.6276814E-002	2.5676175E-003	5.7905924E-004	5.2018481E-004	1.000000000000000E+000	11	3.6104601E-003	9.8897472E-006	1.255942605027586E-006	0.0000000E+000	-1.0011197E+002	8.7342318E-004	2.5962109E-003	2.7391932E-003	7.1405914E+001	3.941880732441455E-007
7.0794981E+005	1.3123373E+002	3.7779657E+002	3.9994067E+002	-7.0844505E+001	3.434488509752555E+000	-1.5956257E-002	2.5741416E-003	5.9505843E-004	5.3098775E-004	1.000000000000000E+000	11	7.7920365E-003	1.9482981E-005	1.628381142464390E-006	0.0000000E+000	-1.0009594E+002	8.2045415E-004	2.3619290E-003	2.5003708E-003	7.0844505E+001	3.724385374368038E-007
6.3095681E+005	1.4733212E+002	4.1465451E+002	4.4005127E+002	-7.0439217E+001	4.030493471393129E+000	-1.5693776E-002	2.5681772E-003	6.0832285E-004	5.4013252E-004	1.000000000000000E+000	11	1.3541202E-002	3.0771873E-005	2.065770564243899E-006	0.0000000E+000	-1.0008792E+002	7.6083565E-004	2.1413115E-003	2.2724625E-003	7.0439217E+001	4.373894217795091E-007
5.6234225E+005	1.6593872E+002	4.5384610E+002	4.8323074E+002	-6.9916183E+001	4.626472646399634E+000	-1.5489241E-002	2.5279182E-003	6.2360673E-004	5.5007124E-004	1.000000000000000E+000	11	2.0707734E-002	4.2852684E-005	2.489932814758220E-006	0.0000000E+000	-1.0008792E+002	7.1062206E-004	1.9435670E-003	2.0694048E-003	6.9916183E+001	4.241622505143207E-007
5.0120619E+005	2.3666617E+002	5.0730786E+002	5.5979651E+002	-6.4990295E+001	5.527470075845486E+000	-1.5364981E-002	2.8013179E-004	6.2593917E-004	5.1406136E-004	1.000000000000000E+000	12	1.2297501E-002	2.1967806E-005	2.821761453310601E-006	0.0000000E+000	-1.0011197E+002	7.5522403E-004	1.6188672E-003	1.7863634E-003	6.4990295E+001	3.318286385523814E-007
4.4668572E+005	2.6102625E+002	5.5418298E+002	6.1257935E+002	-6.4779053E+001	6.123484264157014E+000	-1.5258632E-002	3.0114374E-004	6.4293173E-004	5.2619475E-004	1.000000000000000E+000	12	1.6957961E-002	2.7682881E-005	2.911824438902638E-006	0.0000000E+000	-1.0011999E+002	6.9559977E-004	1.4768230E-003	1.6324415E-003	6.4779053E+001	9.006298559203715E-008
3.9810347E+005	2.8705026E+002	6.0506354E+002	6.6970123E+002	-6.4619713E+001	6.719485625770176E+000	-1.5223200E-002	2.8786928E-004	6.6072878E-004	5.3934043E-004	1.000000000000000E+000	12	2.2550533E-002	3.3672528E-005	2.877176260505267E-006	0.0000000E+000	-1.0007188E+002	6.4002321E-004	1.3490835E-003	1.4932032E-003	6.4619713E+001	-3.464817839737081E-008
3.5480997E+005	3.1658612E+002	6.5645850E+002	7.2881036E+002	-6.4253670E+001	7.315485414088471E+000	-1.5206911E-002	2.9480486E-004	6.8330887E-004	5.5437355E-004	1.000000000000000E+000	12	2.9223362E-002	4.0097348E-005	2.878128069454457E-006	0.0000000E+000	-1.0012801E+002	5.9602276E-004	1.2358853E-003	1.3720990E-003	6.4253670E+001	9.518089491899506E-010
3.1622997E+005	3.4644431E+002	7.1238147E+002	7.9215594E+002	-6.4065491E+001	7.910477469005855E+000	-1.5204040E-002	3.1475417E-004	7.0648757E-004	5.7135802E-004	1.000000000000000E+000	12	3.7027061E-002	4.6742138E-005	2.993738148988087E-006	0.0000000E+000	-1.0010395E+002	5.5209268E-004	1.1352494E-003	1.2623777E-003	6.4065491E+001	1.156100795336291E-007
2.8183453E+005	3.8362265E+002	7.7348004E+002	8.6338733E+002	-6.3619980E+001	8.505477630620589E+000	-1.5220422E-002	2.8604214E-004	7.3009066E-004	5.8595423E-004	1.000000000000000E+000	12	4.6322439E-002	5.3651980E-005	2.916113444390652E-006	0.0000000E+000	-1.0012801E+002	5.1462743E-004	1.0376186E-003	1.1582287E-003	6.3619980E+001	-7.762470459743409E-008
2.5118764E+005	4.2228519E+002	8.3733612E+002	9.3779346E+002	-6.3237286E+001	9.101472538925009E+000	-1.5211849E-002	2.9547696E-004	7.5669703E-004	6.0326385E-004	1.000000000000000E+000	12	5.7121728E-002	6.0910777E-005	2.998146854287572E-006	0.0000000E+000	-1.0009594E+002	4.8016608E-004	9.5210632E-004	1.0663329E-003	6.3237286E+001	8.203340989691957E-008
2.2387173E+005	4.6447064E+002	9.0431323E+002	1.0166196E+003	-6.2814198E+001	9.697496113920351E+000	-1.5196882E-002	3.3552444E-004	7.8614376E-004	6.2204647E-004	1.000000000000000E+000	12	6.9716491E-002	6.8576774E-005	3.017331030650186E-006	0.0000000E+000	-1.0008792E+002	4.4940852E-004	8.7498763E-004	9.8365208E-004	6.2814198E+001	1.918417636261433E-008
1.9954350E+005	5.0990948E+002	9.7541333E+002	1.1006538E+003	-6.2401119E+001	1.029449176896014E+001	-1.5181412E-002	3.1656335E-004	8.1769977E-004	6.4219919E-004	1.000000000000000E+000	12	8.4267586E-002	7.6561388E-005	3.174870848672173E-006	0.0000000E+000	-1.0007188E+002	4.2091229E-004	8.0516923E-004	9.0855086E-004	6.2401119E+001	1.575398180219864E-007
1.7783180E+005	5.5779645E+002	1.0502729E+003	1.1892057E+003	-6.2027378E+001	1.089048659722903E+001	-1.5167266E-002	3.0662646E-004	8.5213530E-004	6.6465908E-004	1.000000000000000E+000	12	1.0102340E-001	8.4950319E-005	3.211103693312402E-006	0.0000000E+000	-1.0011999E+002	3.9442262E-004	7.4265694E-004	8.4089744E-004	6.2027378E+001	3.623284464022932E-008
1.5848613E+005	6.0836761E+002	1.1303558E+003	1.2836726E+003	-6.1710464E+001	1.134948069902021E+001	-1.5196303E-002	2.7220999E-004	8.8841055E-004	6.8886724E-004	1.000000000000000E+000	12	1.2027231E-001	9.3693910E-005	3.177763301874216E-006	0.0000000E+000	-1.0011197E+002	3.6919647E-004	6.8597234E-004	7.7901484E-004	6.1710464E+001	-3.334039143818607E-008
1.4125594E+005	6.6163605E+002	1.2149150E+003	1.3833947E+003	-6.1427532E+001	1.194549315402401E+001	-1.5122570E-002	3.0485546E-004	9.2740089E-004	7.1526528E-004	1.000000000000000E+000	12	1.2881023E-001	9.3111703E-005	3.280951653036330E-006	0.0000000E+000	-1.0009594E+002	3.4572196E-004	6.3482457E-004	7.2285952E-004	6.1427532E+001	1.031883511621140E-007
1.2590930E+005	7.1606964E+002	1.3052684E+003	1.4887853E+003	-6.1250847E+001	1.254148216897738E+001	-1.5089283E-002	2.6484518E-004	9.6841721E-004	7.4438570E-004	1.000000000000000E+000	12	1.3037837E-001	8.7573651E-005	3.461348130417719E-006	0.0000000E+000	-1.0007188E+002	3.2306593E-004	5.8889209E-004	6.7168853E-004	6.1250847E+001	1.803964773813887E-007
1.1220494E+005	7.7215161E+002	1.4033086E+003	1.6017157E+003	-6.1178802E+001	1.313749395732884E+001	-1.5123614E-002	2.8997700E-004	1.0107760E-003	7.7587267E-004	1.000000000000000E+000	12	1.3040066E-001	8.1413113E-005	3.458368303821670E-006	0.0000000E+000	-1.0010395E+002	3.0097592E-004	5.4699369E-004	6.2433054E-004	6.1178802E+001	-2.979826596048292E-009
1.0000371E+005	8.3298560E+002	1.5103955E+003	1.7248651E+003	-6.1123192E+001	1.373348275895114E+001	-1.5034189E-002	2.7465186E-004	1.0536911E-003	8.0794987E-004	1.000000000000000E+000	12	1.3029957E-001	7.5541888E-005	3.664327133554757E-006	0.0000000E+000	-1.0013602E+002	2.7998013E-004	5.0766871E-004	5.7975546E-004	6.1123192E+001	2.059588297330870E-007
8.9129305E+004	8.9754095E+002	1.6289349E+003	1.8598411E+003	-6.1145294E+001	1.432948462726199E+001	-1.5021309E-002	2.7953606E-004	1.0962153E-003	8.4091420E-004	1.000000000000000E+000	12	1.3030401E-001	7.0061906E-005	3.596418612184203E-006	0.0000000E+000	-1.0007990E+002	2.5947925E-004	4.7092536E-004	5.3768035E-004	6.1145294E+001	-6.790852137055459E-008
7.9433273E+004	9.6081262E+002	1.7547817E+003	2.0006049E+003	-6.1297546E+001	1.492548889553291E+001	-1.4961015E-002	2.9187844E-004	1.1418120E-003	8.7845221E-004	1.000000000000000E+000	12	1.2993276E-001	6.4946740E-005	3.723148046690868E-006	0.0000000E+000	-1.0007990E+002	2.4005794E-004	4.3843023E-004	4.9984886E-004	6.1297546E+001	1.267294345066653E-007
7.0794977E+004	1.0267687E+003	1.8925681E+003	2.1531531E+003	-6.1518990E+001	1.552047303048312E+001	-1.4987556E-002	2.7136938E-004	1.1878625E-003	9.1773941E-004	1.000000000000000E+000	12	1.2975112E-001	6.0260983E-005	3.786544714054899E-006	0.0000000E+000	-1.0010395E+002	2.2147402E-004	4.0822700E-004	4.6443517E-004	6.1518990E+001	6.339666736403145E-008
6.3093828E+004	1.0950223E+003	2.0424426E+003	2.3174653E+003	-6.1802742E+001	1.611647913881461E+001	-1.4970819E-002	2.8300329E-004	1.2350467E-003	9.5930480E-004	1.000000000000000E+000	12	1.2953311E-001	5.5894303E-005	3.794689716019093E-006	0.0000000E+000	-1.0010395E+002	2.0389025E-004	3.8029740E-004	4.3150590E-004	6.1802742E+001	8.145001964193328E-009
5.6237012E+004	1.1686787E+003	2.2107810E+003	2.5006724E+003	-6.2137859E+001	1.671247324711294E+001	-1.4961071E-002	2.7513548E-004	1.2801244E-003	1.0005299E-003	1.000000000000000E+000	12	1.2943932E-001	5.1761806E-005	3.839017026548896E-006	0.0000000E+000	-1.0007188E+002	1.8688804E-004	3.5353476E-004	3.9989245E-004	6.2137859E+001	4.432731052980292E-008
5.0122477E+004	1.2470995E+003	2.3976396E+003	2.7025789E+003	-6.2519421E+001	1.717149401557981E+001	-1.4951789E-002	2.5429146E-004	1.3243528E-003	1.0423529E-003	1.000000000000000E+000	12	1.3899937E-001	5.1432125E-005	3.845100369060371E-006	0.0000000E+000	-1.0009594E+002	1.7074356E-004	3.2826693E-004	3.7001696E-004	6.2519421E+001	6.083342511475510E-009
4.4666715E+004	1.3318905E+003	2.6015657E+003	2.9226831E+003	-6.2889492E+001	1.776748652386596E+001	-1.4960623E-002	2.7692522E-004	1.3696239E-003	1.0851942E-003	1.000000000000000E+000	12	1.2983358E-001	4.4422737E-005	3.864721012024145E-006	0.0000000E+000	-1.0009594E+002	1.5592117E-004	3.0455893E-004	3.4215135E-004	6.2889492E+001	1.962064296377348E-008
3.9814063E+004	1.4218781E+003	2.8272495E+003	3.1646606E+003	-6.3301300E+001	1.822747715908918E+001	-1.4942619E-002	3.0009972E-004	1.4139026E-003	1.1284790E-003	1.000000000000000E+000	12	1.3570589E-001	4.2881657E-005	3.933204500099540E-006	0.0000000E+000	-1.0011197E+002	1.4197375E-004	2.8229936E-004	3.1598966E-004	6.3301300E+001	6.848348807539492E-008
3.5480996E+004	1.5187538E+003	3.0739597E+003	3.4286792E+003	-6.3707367E+001	1.868648875420331E+001	-1.4928957E-002	2.8568783E-004	1.4592381E-003	1.1729210E-003	1.000000000000000E+000	12	1.4025506E-001	4.0906441E-005	4.000083724306528E-006	0.0000000E+000	-1.0007990E+002	1.2919141E-004	2.6148360E-004	2.9165749E-004	6.3707367E+001	6.687922420698877E-008
3.1621143E+004	1.6221091E+003	3.3487227E+003	3.7209114E+003	-6.4154625E+001	1.928248736917158E+001	-1.4944819E-002	2.7933001E-004	1.5030153E-003	1.2173714E-003	1.000000000000000E+000	12	1.2963441E-001	3.4839424E-005	4.010066711173395E-006	0.0000000E+000	-1.0009594E+002	1.1716053E-004	2.4186917E-004	2.6875135E-004	6.4154625E+001	9.982986866866878E-009
2.8188096E+004	1.7352050E+003	3.6527502E+003	4.0439487E+003	-6.4590378E+001	1.974247699099942E+001	-1.4945303E-002	2.6195362E-004	1.5457327E-003	1.2611394E-003	1.000000000000000E+000	12	1.3183004E-001	3.2599335E-005	4.029118405349537E-006	0.0000000E+000	-1.0008792E+002	1.0610590E-004	2.2336170E-004	2.4728305E-004	6.4590378E+001	1.905169417614204E-008
2.5116910E+004	1.8584034E+003	3.9853479E+003	4.3973472E+003	-6.4999939E+001	2.020247175954864E+001	-1.4939860E-002	2.9323815E-004	1.5899653E-003	1.3059863E-003	1.000000000000000E+000	12	1.3334990E-001	3.0325076E-005	4.064849590465504E-006	0.0000000E+000	-1.0007990E+002	9.6107768E-005	2.0610320E-004	2.2740984E-004	6.4999939E+001	3.573118511596673E-008
2.2389027E+004	1.9929221E+003	4.3648154E+003	4.7982656E+003	-6.5459129E+001	2.082747730924166E+001	-1.4949720E-002	2.1643535E-005	1.6286172E-003	1.3476658E-003	1.000000000000000E+000	13	1.3565724E-001	2.8272139E-005	4.092255375284190E-006	0.0000000E+000	-1.0010395E+002	8.6560904E-005	1.8958209E-004	2.0840863E-004	6.5459129E+001	2.740578481868589E-008
1.9948783E+004	2.1449893E+003	4.7740000E+003	5.2337422E+003	-6.5805305E+001	2.142347824419267E+001	-1.4936991E-002	2.3251627E-005	1.6711727E-003	1.3904696E-003	1.000000000000000E+000	13	1.3015324E-001	2.4868103E-005	4.148861112259333E-006	0.0000000E+000	-1.0011197E+002	7.8306985E-005	1.7428410E-004	1.9106787E-004	6.5805305E+001	5.660573697514336E-008
1.7786895E+004	2.3119128E+003	5.2211592E+003	5.7101177E+003	-6.6116386E+001	2.188249541269033E+001	-1.4941612E-002	2.3186381E-005	1.7137722E-003	1.4328371E-003	1.000000000000000E+000	13	1.3851705E-001	2.4258179E-005	4.166476601738320E-006	0.0000000E+000	-1.0008792E+002	7.0905735E-005	1.6013152E-004	1.7512775E-004	6.6116386E+001	1.761548947898635E-008
1.5847686E+004	2.4985422E+003	5.7164272E+003	6.2386099E+003	-6.6390770E+001	2.247847285433090E+001	-1.4921204E-002	2.4457369E-005	1.7568294E-003	1.4750384E-003	1.000000000000000E+000	13	1.2947628E-001	2.0754027E-005	4.146661855869878E-006	0.0000000E+000	-1.0005585E+002	6.4196458E-005	1.4687539E-004	1.6029213E-004	6.6390770E+001	-1.981474586844152E-008
1.4121879E+004	2.7065422E+003	6.2597520E+003	6.8198140E+003	-6.6617691E+001	2.293749540942372E+001	-1.4920776E-002	2.1810934E-005	1.8004064E-003	1.5168398E-003	1.000000000000000E+000	13	1.2974079E-001	1.9024095E-005	4.161966043550845E-006	0.0000000E+000	-1.0003180E+002	5.8192862E-005	1.3458976E-004	1.4663156E-004	6.6617691E+001	1.530418768096677E-008
1.2590932E+004	2.9386785E+003	6.8581123E+003	7.4612021E+003	-6.6805031E+001	2.339747481796076E+001	-1.4928026E-002	2.4494590E-005	1.8431372E-003	1.5572174E-003	1.000000000000000E+000	13	1.2808719E-001	1.7167098E-005	4.172432511143370E-006	0.0000000E+000	-1.0009594E+002	5.2787902E-005	1.2319327E-004	1.3402666E-004	6.6805031E+001	1.046646759252470E-008
1.1217711E+004	3.2052888E+003	7.5161304E+003	8.1710522E+003	-6.6903954E+001	2.385748273311765E+001	-1.4928194E-002	2.3344635E-005	1.8876505E-003	1.5971814E-003	1.000000000000000E+000	13	1.2552670E-001	1.5362366E-005	4.164631915673377E-006	0.0000000E+000	-1.0009594E+002	4.8007725E-005	1.1257406E-004	1.2238325E-004	6.6903954E+001	-7.800595469992210E-009
1.0002229E+004	3.5040730E+003	8.2356592E+003	8.9501182E+003	-6.6951424E+001	2.431747134166653E+001	-1.4916992E-002	2.0746655E-005	1.9320793E-003	1.6359278E-003	1.000000000000000E+000	13	1.2276737E-001	1.3716844E-005	4.171237337303081E-006	0.0000000E+000	-1.0011197E+002	4.3743716E-005	1.0281130E-004	1.1173037E-004	6.6951424E+001	6.605421629703924E-009
8.9149297E+003	3.8426169E+003	9.0277520E+003	9.8115244E+003	-6.6943214E+001	2.479991992461146E+001	-1.4919713E-002	1.7039696E-005	1.9775277E-003	1.6742058E-003	1.000000000000000E+000	13	1.2011959E-001	1.2242705E-005	4.181716818481643E-006	0.0000000E+000	-1.0010395E+002	3.9916657E-005	9.3779221E-005	1.0192096E-004	6.6943214E+001	1.047948117856190E-008
7.9439976E+003	4.2353301E+003	9.8950000E+003	1.0763319E+004	-6.6827751E+001	2.532600200292654E+001	-1.4919061E-002	2.9054801E-005	2.0247211E-003	1.7112142E-003	1.000000000000000E+000	13	1.1776128E-001	1.0940981E-005	4.176529025858776E-006	0.0000000E+000	-1.0007990E+002	3.6559046E-005	8.5412874E-005	9.2908143E-005	6.6827751E+001	-5.187792622867524E-009
7.0822334E+003	4.6859297E+003	1.0838525E+004	1.1808114E+004	-6.6619232E+001	2.590285603032680E+001	-1.4902846E-002	2.9405152E-005	2.0733839E-003	1.7468636E-003	1.000000000000000E+000	13	1.1572665E-001	9.8006039E-006	4.190021593176298E-006	0.0000000E+000	-1.0010395E+002	3.3607383E-005	7.7733654E-005	8.4687526E-005	6.6619232E+001	1.349256731752279E-008
6.3077344E+003	5.2076333E+003	1.1874386E+004	1.2966128E+004	-6.6319656E+001	2.672254894921207E+001	-1.4899658E-002	2.7288021E-005	2.1248856E-003	1.7821214E-003	1.000000000000000E+000	13	1.2656218E-001	9.7609845E-006	4.184856803775524E-006	0.0000000E+000	-1.0007990E+002	3.0975603E-005	7.0630223E-005	7.7124030E-005	6.6319656E+001	-5.164789400774945E-009
5.6210552E+003	5.8147603E+003	1.2998711E+004	1.4240012E+004	-6.5899429E+001	2.742324588916381E+001	-1.4885810E-002	2.7448274E-005	2.1782212E-003	1.8150219E-003	1.000000000000000E+000	13	1.2497884E-001	8.7765966E-006	4.192671313011917E-006	0.0000000E+000	-1.0007990E+002	2.8675508E-005	6.4103187E-005	7.0224662E-005	6.5899429E+001	7.814509236393515E-009
5.0116035E+003	6.5143711E+003	1.4205923E+004	1.5628349E+004	-6.5365364E+001	2.818371000534535E+001	-1.4875559E-002	2.6110138E-005	2.2354964E-003	1.8470841E-003	1.000000000000000E+000	13	1.2367448E-001	7.9134707E-006	4.197358265540187E-006	0.0000000E+000	-1.0004784E+002	2.6671427E-005	5.8162528E-005	6.3986285E-005	6.5365364E+001	4.686952528270129E-009
4.4664292E+003	7.3321338E+003	1.5505869E+004	1.7152031E+004	-6.4692322E+001	2.894269844139490E+001	-1.4881635E-002	2.9438652E-005	2.2980717E-003	1.8781258E-003	1.000000000000000E+000	13	1.2259802E-001	7.1477261E-006	4.208141981188318E-006	0.0000000E+000	-1.0008792E+002	2.4922938E-005	5.2706600E-005	5.8302132E-005	6.4692322E+001	1.078371564813042E-008
3.9812742E+003	8.2749121E+003	1.6898594E+004	1.8815861E+004	-6.3909908E+001	2.970269005082810E+001	-1.4883388E-002	2.7235752E-005	2.3656334E-003	1.9080967E-003	1.000000000000000E+000	13	1.2172554E-001	6.4693045E-006	4.216338612397117E-006	0.0000000E+000	-1.0005585E+002	2.3373039E-005	4.7731199E-005	5.3146650E-005	6.3909908E+001	8.196631208799910E-009
3.5465955E+003	9.3896934E+003	1.8382719E+004	2.0641965E+004	-6.2942551E+001	3.046292304692906E+001	-1.4879213E-002	3.1973192E-005	2.4411741E-003	1.9360482E-003	1.000000000000000E+000	13	1.2100809E-001	5.8622372E-006	4.226742042070858E-006	0.0000000E+000	-1.0003982E+002	2.2036838E-005	4.3142736E-005	4.8444999E-005	6.2942551E+001	1.040342967374058E-008
3.1610112E+003	1.0671264E+004	1.9921209E+004	2.2599346E+004	-6.1823227E+001	3.122267406968604E+001	-1.4880536E-002	3.1568765E-005	2.5274258E-003	1.9638941E-003	1.000000000000000E+000	13	1.2042794E-001	5.3288240E-006	4.235262702805004E-006	0.0000000E+000	-1.0007990E+002	2.0894120E-005	3.9005328E-005	4.4249067E-005	6.1823227E+001	8.520660734145463E-009
2.8172952E+003	1.2148922E+004	2.1519504E+004	2.4712049E+004	-6.0552925E+001	3.198293973243563E+001	-1.4873770E-002	2.6115647E-005	2.6251585E-003	1.9906850E-003	1.000000000000000E+000	13	1.1995589E-001	4.8541460E-006	4.241178010125597E-006	0.0000000E+000	-1.0005585E+002	1.9893914E-005	3.5238281E-005	4.0466090E-005	6.0552925E+001	5.915307320593459E-009
2.5108032E+003	1.3865250E+004	2.3153570E+004	2.6987645E+004	-5.9085201E+001	3.274266750187962E+001	-1.4883183E-002	2.6972924E-005	2.7377228E-003	2.0150947E-003	1.000000000000000E+000	13	1.1957764E-001	4.4308290E-006	4.243600250377894E-006	0.0000000E+000	-1.0005585E+002	1.9036965E-005	3.1789816E-005	3.7053993E-005	5.9085201E+001	2.422240252296774E-009
2.2378516E+003	1.5835826E+004	2.4784648E+004	2.9411770E+004	-5.7423988E+001	3.350295265798923E+001	-1.4878859E-002	2.9408742E-005	2.8694989E-003	2.0376488E-003	1.000000000000000E+000	13	1.1926955E-001	4.0551640E-006	4.248432249902433E-006	0.0000000E+000	-1.0008792E+002	1.8306209E-005	2.8651042E-005	3.3999993E-005	5.7423988E+001	4.831999524538781E-009
1.9956389E+003	1.8006234E+004	2.6288563E+004	3.1863977E+004	-5.5590977E+001	3.426266365408082E+001	-1.4875205E-002	2.8965174E-005	3.0336909E-003	2.0649286E-003	1.000000000000000E+000	13	1.1901265E-001	3.7350221E-006	4.255191414152225E-006	0.0000000E+000	-1.0003982E+002	1.7734665E-005	2.5892077E-005	3.1383403E-005	5.5590977E+001	6.759164249792743E-009
1.7782927E+003	2.0494305E+004	2.7864318E+004	3.4589547E+004	-5.3665386E+001	3.502293937015929E+001	-1.4877386E-002	2.9807541E-005	3.2119476E-003	2.0843735E-003	1.000000000000000E+000	13	1.1881924E-001	3.4351199E-006	4.263530140176095E-006	0.0000000E+000	-1.0008792E+002	1.7129450E-005	2.3289420E-005	2.8910468E-005	5.3665386E+001	8.338726023869883E-009
1.5855076E+003	2.3281852E+004	2.9100020E+004	3.7267355E+004	-5.1337986E+001	3.603367344486469E+001	-1.4881412E-002	2.5157176E-006	3.4495187E-003	2.1032356E-003	1.000000000000000E+000	14	1.2381712E-001	3.3224017E-006	4.267634004854295E-006	0.0000000E+000	-1.0003180E+002	1.6763333E-005	2.0952513E-005	2.6833135E-005	5.1337986E+001	4.103864678199936E-009
1.4118373E+003	2.6253139E+004	3.0278248E+004	4.0074926E+004	-4.9072662E+001	3.679421345426817E+001	-1.4881169E-002	2.0649904E-006	3.7231003E-003	2.1253028E-003	1.000000000000000E+000	14	1.2270815E-001	3.0619683E-006	4.266608992360046E-006	0.0000000E+000	-1.0007188E+002	1.6346914E-005	1.8853210E-005	2.4953259E-005	4.9072662E+001	-1.025012494248980E-009
1.2587914E+003	2.9384727E+004	3.1196439E+004	4.2856504E+004	-4.6712952E+001	3.755396338371793E+001	-1.4882251E-002	2.2233019E-006	4.0528574E-003	2.1475235E-003	1.000000000000000E+000	14	1.2182020E-001	2.8425138E-006	4.269012487477009E-006	0.0000000E+000	-1.0005585E+002	1.5998829E-005	1.6985234E-005	2.3333681E-005	4.6712952E+001	2.403495116962380E-009
1.1217948E+003	3.2684826E+004	3.1849697E+004	4.5636621E+004	-4.4258587E+001	3.831242864640080E+001	-1.4877480E-002	2.5845036E-006	4.4545247E-003	2.1696268E-003	1.000000000000000E+000	14	1.2108304E-001	2.6531991E-006	4.267432239134640E-006	0.0000000E+000	-1.0007990E+002	1.5693478E-005	1.5292495E-005	2.1912227E-005	4.4258587E+001	-1.580248342368644E-009
1.0003201E+003	3.6038055E+004	3.2155357E+004	4.8298121E+004	-4.1741295E+001	3.907169350916229E+001	-1.4876491E-002	2.4664582E-006	4.9479785E-003	2.1931787E-003	1.000000000000000E+000	14	1.2049341E-001	2.4947847E-006	4.266553452872485E-006	0.0000000E+000	-1.0007990E+002	1.5449019E-005	1.3784559E-005	2.0704740E-005	4.1741295E+001	-8.787862621551971E-010
8.9142657E+002	3.9432730E+004	3.2168982E+004	5.0889918E+004	-3.9207355E+001	3.983044799850904E+001	-1.4885698E-002	3.2019213E-006	5.5500544E-003	2.2177284E-003	1.000000000000000E+000	14	1.2001345E-001	2.3582952E-006	4.265739010882852E-006	0.0000000E+000	-1.0011999E+002	1.5226264E-005	1.2421493E-005	1.9650257E-005	3.9207355E+001	-8.144419896328843E-010
7.9423773E+002	4.2769566E+004	3.1843176E+004	5.3321887E+004	-3.6668747E+001	4.058996390126413E+001	-1.4887786E-002	2.2734409E-006	6.2929355E-003	2.2442695E-003	1.000000000000000E+000	14	1.1962137E-001	2.2433821E-006	4.266489143985849E-006	0.0000000E+000	-1.0007188E+002	1.5042631E-005	1.1199673E-005	1.8754024E-005	3.6668747E+001	7.501331029969923E-010
7.0750946E+002	4.5963258E+004	3.1231082E+004	5.5569789E+004	-3.4195297E+001	4.135244991080253E+001	-1.4879380E-002	2.1550234E-006	7.2027911E-003	2.2750839E-003	1.000000000000000E+000	14	1.1931144E-001	2.1470560E-006	4.266815077420953E-006	0.0000000E+000	-1.0008792E+002	1.4884467E-005	1.0113687E-005	1.7995389E-005	3.4195297E+001	3.259334351044874E-010
6.3100964E+002	4.8968805E+004	3.0381994E+004	5.7628199E+004	-3.1816940E+001	4.211041050674976E+001	-1.4890843E-002	2.4011740E-006	8.3017163E-003	2.3074395E-003	1.000000000000000E+000	14	1.1906764E-001	2.0661350E-006	4.267038058241838E-006	0.0000000E+000	-1.0008792E+002	1.4745156E-005	9.1484208E-006	1.7352615E-005	3.1816940E+001	2.229808208845587E-010
5.6233929E+002	5.1724613E+004	2.9324537E+004	5.9458930E+004	-2.9550455E+001	4.286693803608068E+001	-1.4886370E-002	2.0755849E-006	9.6514048E-003	2.3475708E-003	1.000000000000000E+000	14	1.1886155E-001	1.9990530E-006	4.269011670475834E-006	0.0000000E+000	-1.0003982E+002	1.4630633E-005	8.2946299E-006	1.6818332E-005	2.9550455E+001	1.973612233995959E-009
5.0144415E+002	5.4242637E+004	2.8146082E+004	6.1110273E+004	-2.7424448E+001	4.362416793868761E+001	-1.4889445E-002	2.2253250E-006	1.1276637E-002	2.3921425E-003	1.000000000000000E+000	14	1.1870065E-001	1.9424010E-006	4.267958088944157E-006	0.0000000E+000	-1.0007188E+002	1.4524873E-005	7.5368439E-006	1.6363862E-005	2.7424448E+001	-1.053581531676592E-009
4.4685895E+002	5.6516180E+004	2.6852709E+004	6.2571133E+004	-2.5413940E+001	4.438090016131173E+001	-1.4887973E-002	1.7442117E-006	1.3263605E-002	2.4428105E-003	1.000000000000000E+000	14	1.1856944E-001	1.8949544E-006	4.270338025775421E-006	0.0000000E+000	-1.0006387E+002	1.4435264E-005	6.8586724E-006	1.5981810E-005	2.5413940E+001	2.379936831263978E-009
3.9808920E+002	5.8524926E+004	2.5586559E+004	6.3873617E+004	-2.3614506E+001	4.514373110422457E+001	-1.4883500E-002	2.3303130E-006	1.5625281E-002	2.5073132E-003	1.000000000000000E+000	14	1.1846497E-001	1.8546776E-006	4.271029995849517E-006	0.0000000E+000	-1.0006387E+002	1.4344911E-005	6.2714630E-006	1.5655916E-005	2.3614506E+001	6.919700740960476E-010
3.5465955E+002	6.0283406E+004	2.4343316E+004	6.5012969E+004	-2.1989573E+001	4.590395695366897E+001	-1.4886091E-002	2.2723166E-006	1.8434389E-002	2.5845696E-003	1.000000000000000E+000	14	1.1837918E-001	1.8208549E-006	4.272378913241786E-006	0.0000000E+000	-1.0009594E+002	1.4262570E-005	5.7594334E-006	1.5381547E-005	2.1989573E+001	1.348917392268354E-009
3.1631586E+002	6.1824039E+004	2.3157947E+004	6.6018953E+004	-2.0534863E+001	4.666090122962487E+001	-1.4888457E-002	2.2227146E-006	2.1726966E-002	2.6733878E-003	1.000000000000000E+000	14	1.1831567E-001	1.7921470E-006	4.271905072701656E-006	0.0000000E+000	-1.0007188E+002	1.4184698E-005	5.3132808E-006	1.5147165E-005	2.0534863E+001	-4.738405401294153E-010
2.8189429E+002	6.3130211E+004	2.2060330E+004	6.6873625E+004	-1.9261545E+001	4.741640163879492E+001	-1.4891943E-002	3.2244745E-006	2.5593037E-002	2.7850701E-003	1.000000000000000E+000	14	1.1825787E-001	1.7683783E-006	4.272590231882229E-006	0.0000000E+000	-1.0009594E+002	1.4116516E-005	4.9328996E-006	1.4953578E-005	1.9261545E+001	6.851591805729225E-010
2.5104436E+002	6.4337754E+004	2.1081609E+004	6.7703625E+004	-1.8142464E+001	4.817293068810250E+001	-1.4881785E-002	2.6368807E-006	3.0072248E-002	2.9157451E-003	1.000000000000000E+000	14	1.1822024E-001	1.7461434E-006	4.271078936802610E-006	0.0000000E+000	-1.0007990E+002	1.4035957E-005	4.5991746E-006	1.4770258E-005	1.8142464E+001	-1.511295079619301E-009
2.2392513E+002	6.5380797E+004	2.0229613E+004	6.8438922E+004	-1.7192703E+001	4.893571816434269E+001	-1.4884655E-002	2.5057896E-006	3.5134174E-002	3.0697186E-003	1.000000000000000E+000	14	1.1818440E-001	1.7268594E-006	4.269882815509226E-006	0.0000000E+000	-1.0008792E+002	1.3958665E-005	4.3189812E-006	1.4611569E-005	1.7192703E+001	-1.196121293383303E-009
1.9955299E+002	6.6313930E+004	1.9553518E+004	6.9136656E+004	-1.6428833E+001	4.969718956048018E+001	-1.4886910E-002	2.5622887E-006	4.0788427E-002	3.2626465E-003	1.000000000000000E+000	14	1.1815041E-001	1.7089402E-006	4.269991991196990E-006	0.0000000E+000	-1.0008792E+002	1.3873563E-005	4.0907994E-006	1.4464107E-005	1.6428833E+001	1.091756877637977E-010
1.7778128E+002	6.7152047E+004	1.9013166E+004	6.9791820E+004	-1.5808731E+001	5.046522727693082E+001	-1.4886836E-002	2.3657401E-006	4.7084685E-002	3.4944552E-003	1.000000000000000E+000	14	1.1813109E-001	1.6926209E-006	4.271529006297770E-006	0.0000000E+000	-1.0005585E+002	1.3786379E-005	3.9034212E-006	1.4328327E-005	1.5808731E+001	1.537015100780004E-009
1.5842838E+002	6.7930383E+004	1.8636549E+004	7.0440453E+004	-1.5341503E+001	5.123175542005629E+001	-1.4885680E-002	2.4619628E-006	5.3904086E-002	3.7731875E-003	1.000000000000000E+000	14	1.1811147E-001	1.6767561E-006	4.271293450104850E-006	0.0000000E+000	-1.0010395E+002	1.3690515E-005	3.7559623E-006	1.4196388E-005	1.5341503E+001	-2.355561929204693E-010
1.4131134E+002	6.8626125E+004	1.8400463E+004	7.1050141E+004	-1.5009462E+001	5.198488289583474E+001	-1.4887488E-002	2.2447155E-006	6.1208870E-002	4.1052727E-003	1.000000000000000E+000	14	1.1809874E-001	1.6621885E-006	4.273105942865186E-006	0.0000000E+000	-1.0006387E+002	1.3594386E-005	3.6450115E-006	1.4074568E-005	1.5009462E+001	1.812492760336294E-009
1.2584569E+002	6.9375539E+004	1.8261756E+004	7.1738813E+004	-1.4747453E+001	5.274042495831964E+001	-1.4889445E-002	2.6180435E-006	6.9253102E-002	4.4876188E-003	1.000000000000000E+000	14	1.1808861E-001	1.6460909E-006	4.272171560083860E-006	0.0000000E+000	-1.0007990E+002	1.3480252E-005	3.5484134E-006	1.3939456E-005	1.4747453E+001	-9.343827813259112E-010
1.1218996E+002	7.0103383E+004	1.8355496E+004	7.2466602E+004	-1.4672634E+001	5.348585659379023E+001	-1.4888699E-002	1.9551148E-006	7.7285856E-002	4.9585705E-003	1.000000000000000E+000	14	1.1807826E-001	1.6294163E-006	4.270766395219400E-006	0.0000000E+000	-1.0007990E+002	1.3349444E-005	3.4953471E-006	1.3799460E-005	1.4672634E+001	-1.405164864460006E-009
1.0003201E+002	7.0808008E+004	1.8563316E+004	7.3200891E+004	-1.4690297E+001	5.424567609655787E+001	-1.4887189E-002	1.8040668E-006	8.5708834E-002	5.5119335E-003	1.000000000000000E+000	14	1.1806673E-001	1.6129138E-006	4.271159975928021E-006	0.0000000E+000	-1.0006387E+002	1.3214467E-005	3.4643585E-006	1.3661036E-005	1.4690297E+001	3.935807086210224E-010
8.9115974E+001	7.1580438E+004	1.8928477E+004	7.4040844E+004	-1.4812053E+001	5.501274738631037E+001	-1.4886854E-002	2.3592117E-006	9.4351523E-002	6.1664823E-003	1.000000000000000E+000	14	1.1806289E-001	1.5945644E-006	4.272912190024815E-006	0.0000000E+000	-1.0003982E+002	1.3057248E-005	3.4528123E-006	1.3506059E-005	1.4812053E+001	1.752214096794065E-009
7.9415527E+001	7.2359055E+004	1.9434625E+004	7.4923547E+004	-1.5034034E+001	5.577723150260863E+001	-1.4889669E-002	2.0653213E-006	1.0311896E-001	6.9383183E-003	1.000000000000000E+000	14	1.1805225E-001	1.5756362E-006	4.271742004499117E-006	0.0000000E+000	-1.0010395E+002	1.2890098E-005	3.4620991E-006	1.3346938E-005	1.5034034E+001	-1.170185525698120E-009
7.0838745E+001	7.3165133E+004	2.0060904E+004	7.5865516E+004	-1.5332919E+001	5.652839436495560E+001	-1.4894533E-002	3.4860993E-006	1.1199503E-001	7.8308871E-003	1.000000000000000E+000	14	1.1804726E-001	1.5560069E-006	4.273188354168654E-006	0.0000000E+000	-1.0007188E+002	1.2712043E-005	3.4854729E-006	1.3181219E-005	1.5332919E+001	1.446349669537187E-009
6.3082302E+001	7.4053922E+004	2.0854254E+004	7.6934281E+004	-1.5727699E+001	5.730882989536622E+001	-1.4885829E-002	2.6689506E-006	1.2098122E-001	8.8892980E-003	1.000000000000000E+000	14	1.1804044E-001	1.5343022E-006	4.273759142503202E-006	0.0000000E+000	-1.0005585E+002	1.2511468E-005	3.5233427E-006	1.2998107E-005	1.5727699E+001	5.707883345474788E-010
5.6241817E+001	7.4982664E+004	2.1760098E+004	7.8076258E+004	-1.6182819E+001	5.805334411739022E+001	-1.4892912E-002	1.7688195E-006	1.3004689E-001	1.0101449E-002	1.000000000000000E+000	14	1.1803774E-001	1.5118262E-006	4.275109637211914E-006	0.0000000E+000	-1.0004784E+002	1.2300504E-005	3.5696273E-006	1.2807991E-005	1.6182819E+001	1.350494708712349E-009
5.0144413E+001	7.5904070E+004	2.2811691E+004	7.9257813E+004	-1.6727266E+001	5.881019577998086E+001	-1.4892651E-002	1.5847646E-006	1.3913618E-001	1.1525795E-002	1.000000000000000E+000	14	1.1803689E-001	1.4892777E-006	4.276425619865575E-006	0.0000000E+000	-1.0011197E+002	1.2083170E-005	3.6313934E-006	1.2617053E-005	1.6727266E+001	1.315982653661305E-009
4.4671219E+001	7.7120813E+004	2.3950508E+004	8.0754234E+004	-1.7252615E+001	5.957421725624590E+001	-1.4886929E-002	2.5128666E-006	1.4875707E-001	1.3085082E-002	1.000000000000000E+000	14	1.1803270E-001	1.4616286E-006	4.276999918977759E-006	0.0000000E+000	-1.0010395E+002	1.1826084E-005	3.6726885E-006	1.2383251E-005	1.7252615E+001	5.742991121832555E-010
3.9808922E+001	7.8277563E+004	2.5221150E+004	8.2240398E+004	-1.7859020E+001	6.033672726586519E+001	-1.4893453E-002	1.9357158E-006	1.5851663E-001	1.4908508E-002	1.000000000000000E+000	14	1.1803139E-001	1.4351996E-006	4.276094801643366E-006	0.0000000E+000	-1.0008792E+002	1.1573557E-005	3.7290179E-006	1.2159474E-005	1.7859020E+001	-9.051173343926146E-010
3.5465305E+001	7.9593555E+004	2.6653072E+004	8.3937594E+004	-1.8513880E+001	6.108711916810717E+001	-1.4892558E-002	2.4716530E-006	1.6837172E-001	1.6976599E-002	1.000000000000000E+000	14	1.1802711E-001	1.4061294E-006	4.278012081013079E-006	0.0000000E+000	-1.0007188E+002	1.1297045E-005	3.7829816E-006	1.1913613E-005	1.8513880E+001	1.917279369712553E-009
3.1629551E+001	8.0928055E+004	2.8171820E+004	8.5691313E+004	-1.9193491E+001	6.181144469583523E+001	-1.4895521E-002	1.6722202E-006	1.7861265E-001	1.9304939E-002	1.000000000000000E+000	14	1.1802247E-001	1.3772980E-006	4.279817007186631E-006	0.0000000E+000	-1.0007990E+002	1.1021114E-005	3.8365542E-006	1.1669795E-005	1.9193491E+001	1.804926173551974E-009
2.8170074E+001	8.2399820E+004	2.9829893E+004	8.7633055E+004	-1.9900969E+001	6.261675409415329E+001	-1.4889427E-002	1.7203283E-006	1.8940021E-001	2.1945624E-002	1.000000000000000E+000	14	1.1801796E-001	1.3467288E-006	4.280499212056776E-006	0.0000000E+000	-1.0011197E+002	1.0729768E-005	3.8843268E-006	1.1411219E-005	1.9900969E+001	6.822048701451722E-010
2.5104435E+001	8.3974008E+004	3.1620721E+004	8.9730172E+004	-2.0634048E+001	6.337293770338874E+001	-1.4893639E-002	2.6314603E-006	2.0049241E-001	2.4898000E-002	1.000000000000000E+000	14	1.1802089E-001	1.3152866E-006	4.280598534356197E-006	0.0000000E+000	-1.0006387E+002	1.0429605E-005	3.9273059E-006	1.1144523E-005	2.0634048E+001	9.932229942115383E-011
2.2385387E+001	8.5656828E+004	3.3510785E+004	9.1978609E+004	-2.1366501E+001	6.405941176266060E+001	-1.4892427E-002	2.0873144E-006	2.1216363E-001	2.8162191E-002	1.000000000000000E+000	14	1.1801738E-001	1.2830959E-006	4.280162884680155E-006	0.0000000E+000	-1.0007990E+002	1.0124843E-005	3.9610554E-006	1.0872093E-005	2.1366501E+001	-4.356496760416273E-010
1.9955299E+001	8.7424273E+004	3.5561500E+004	9.4380211E+004	-2.2134977E+001	6.482121547884890E+001	-1.4885942E-002	2.1911796E-006	2.2427550E-001	3.1840514E-002	1.000000000000000E+000	14	1.1801460E-001	1.2504167E-006	4.278569924435980E-006	0.0000000E+000	-1.0009594E+002	9.8145447E-006	3.9922543E-006	1.0595441E-005	2.2134977E+001	-1.592960244175028E-009
1.7796129E+001	8.9320563E+004	3.7742113E+004	9.6967156E+004	-2.2906332E+001	6.566551469222759E+001	-1.4891514E-002	2.3607793E-006	2.3695637E-001	3.5898101E-002	1.000000000000000E+000	14	1.1801451E-001	1.2170566E-006	4.278912134768916E-006	0.0000000E+000	-1.0004784E+002	9.4995303E-006	4.0139957E-006	1.0312770E-005	2.2906332E+001	3.422103329358669E-010
1.5857576E+001	9.1360406E+004	4.0093488E+004	9.9770797E+004	-2.3694254E+001	6.638791229992057E+001	-1.4892707E-002	2.0112248E-006	2.5032800E-001	4.0425021E-002	1.000000000000000E+000	14	1.1801108E-001	1.1828218E-006	4.284972902190930E-006	0.0000000E+000	-1.0008792E+002	9.1780648E-006	4.0277910E-006	1.0022973E-005	2.3694254E+001	6.060767422013327E-009
1.4118974E+001	9.3502672E+004	4.2589480E+004	1.0274538E+005	-2.4488764E+001	6.719026503132773E+001	-1.4887526E-002	2.2646489E-006	2.6467606E-001	4.5477305E-002	1.000000000000000E+000	14	1.1800984E-001	1.1485658E-006	4.282728258256813E-006	0.0000000E+000	-1.0009594E+002	8.8572597E-006	4.0343884E-006	9.7327975E-006	2.4488764E+001	-2.244643934116411E-009
1.2600808E+001	9.5707602E+004	4.5289281E+004	1.0588231E+005	-2.5323729E+001	6.808086099367938E+001	-1.4892045E-002	1.2173865E-006	2.7888575E-001	5.1023509E-002	1.000000000000000E+000	14	1.1800721E-001	1.1145130E-006	4.280034347147269E-006	0.0000000E+000	-1.0005585E+002	8.5368883E-006	4.0396949E-006	9.4444476E-006	2.5323729E+001	-2.693911109543838E-009
1.1224856E+001	9.8099805E+004	4.8117074E+004	1.0926493E+005	-2.6127537E+001	6.876493137283251E+001	-1.4896714E-002	2.0477733E-006	2.9467285E-001	5.7144832E-002	1.000000000000000E+000	14	1.1800835E-001	1.0800204E-006	4.286305248310252E-006	0.0000000E+000	-1.0011197E+002	8.2168735E-006	4.0303025E-006	9.1520678E-006	2.6127537E+001	6.270901162982323E-009
1.0003201E+001	1.0059602E+005	5.1259348E+004	1.1290297E+005	-2.7001408E+001	6.952569570231572E+001	-1.4891160E-002	2.3918251E-006	3.1039023E-001	6.3979894E-002	1.000000000000000E+000	14	1.1800350E-001	1.0451762E-006	4.286234639985777E-006	0.0000000E+000	-1.0008792E+002	7.8916919E-006	4.0212617E-006	8.8571633E-006	2.7001408E+001	-7.060832447493130E-011
8.9183798E+000	1.0323463E+005	5.4567648E+004	1.1676907E+005	-2.7859987E+001	7.037000088905916E+001	-1.4886808E-002	2.3521040E-006	3.2703856E-001	7.1419001E-002	1.000000000000000E+000	14	1.1800458E-001	1.0105808E-006	4.283552345598802E-006	0.0000000E+000	-1.0003982E+002	7.5712869E-006	4.0020232E-006	8.5639113E-006	2.7859987E+001	-2.682294386974974E-009
7.9395342E+000	1.0600841E+005	5.8162473E+004	1.2091591E+005	-2.8751774E+001	7.130866813367174E+001	-1.4887311E-002	2.2107522E-006	3.4465313E-001	7.9744570E-002	1.000000000000000E+000	14	1.1800275E-001	9.7590760E-007	4.286931370828326E-006	0.0000000E+000	-1.0006387E+002	7.2505918E-006	3.9781030E-006	8.2702109E-006	2.8751774E+001	3.379025229524202E-009
7.0765405E+000	1.0894445E+005	6.2010262E+004	1.2535616E+005	-2.9648167E+001	7.186703354684869E+001	-1.4900553E-002	2.1568619E-006	3.6268997E-001	8.8750616E-002	1.000000000000000E+000	14	1.1800214E-001	9.4133503E-007	4.286071498728398E-006	0.0000000E+000	-1.0007188E+002	6.9328817E-006	3.9461374E-006	7.9772708E-006	2.9648167E+001	-8.598720999282699E-010
6.3105822E+000	1.1205392E+005	6.6038500E+004	1.3006600E+005	-3.0512791E+001	7.248719040295691E+001	-1.4889743E-002	9.2050976E-007	3.8190335E-001	9.8451041E-002	1.000000000000000E+000	14	1.1799603E-001	9.0720118E-007	4.282098402545065E-006	0.0000000E+000	-1.0003982E+002	6.6236821E-006	3.9036390E-006	7.6884044E-006	3.0512791E+001	-3.973096183332773E-009
5.6205034E+000	1.1539982E+005	7.0469781E+004	1.3521505E+005	-3.1410643E+001	7.317366659558320E+001	-1.4900739E-002	-2.0190345E-007	4.0182969E-001	1.0914348E-001	1.000000000000000E+000	14	1.1800183E-001	8.7269746E-007	4.278753956632070E-006	0.0000000E+000	-1.0007188E+002	6.3118273E-006	3.8543653E-006	7.3956267E-006	3.1410643E+001	-3.344445912994585E-009
5.0144415E+000	1.1864049E+005	7.5176609E+004	1.4045316E+005	-3.2360413E+001	7.393117335150600E+001	-1.4899248E-002	-5.2161500E-008	4.2219672E-001	1.2095318E-001	1.000000000000000E+000	14	1.1800587E-001	8.4017955E-007	4.282484011092834E-006	0.0000000E+000	-1.0005585E+002	6.0140901E-006	3.8108315E-006	7.1198115E-006	3.2360413E+001	3.730054460763508E-009
4.4693937E+000	1.2220431E+005	8.0511383E+004	1.4634198E+005	-3.3377934E+001	7.477249445815687E+001	-1.4898289E-002	2.9458486E-006	4.4229725E-001	1.3387236E-001	1.000000000000000E+000	14	1.1799702E-001	8.0631008E-007	4.293780591635899E-006	0.0000000E+000	-1.0000775E+002	5.7062216E-006	3.7594075E-006	6.8333088E-006	3.3377934E+001	1.129658054306510E-008
3.9778514E+000	1.2601562E+005	8.6021508E+004	1.5257666E+005	-3.4318451E+001	7.570916495597339E+001	-1.4893369E-002	3.2632338E-006	4.6511945E-001	1.4784357E-001	1.000000000000000E+000	14	1.1799892E-001	7.7337467E-007	4.291845101945316E-006	0.0000000E+000	-1.0007990E+002	5.4131269E-006	3.6951396E-006	6.5540826E-006	3.4318451E+001	-1.935489690582810E-009
3.5511365E+000	1.2995367E+005	9.2190250E+004	1.5933298E+005	-3.5352215E+001	7.675041289874935E+001	-1.4885596E-002	2.0116838E-006	4.8614720E-001	1.6275202E-001	1.000000000000000E+000	14	1.1799624E-001	7.4056379E-007	4.278952425985671E-006	0.0000000E+000	-1.0007990E+002	5.1189063E-006	3.6313959E-006	6.2761642E-006	3.5352215E+001	-1.289267595964526E-008
3.1603966E+000	1.3415542E+005	9.8752859E+004	1.6658272E+005	-3.6357075E+001	7.791321271398920E+001	-1.4890144E-002	1.6570943E-006	5.0995153E-001	1.7921253E-001	1.000000000000000E+000	14	1.1799989E-001	7.0835614E-007	4.290746711793240E-006	0.0000000E+000	-1.0006387E+002	4.8344641E-006	3.5586868E-006	6.0030238E-006	3.6357075E+001	1.179428580756964E-008
2.8183618E+000	1.3862592E+005	1.0594190E+005	1.7447302E+005	-3.7388096E+001	7.920867962890043E+001	-1.4885342E-002	2.3877953E-006	5.3303486E-001	1.9653259E-001	1.000000000000000E+000	14	1.1799842E-001	6.7631328E-007	4.297120820253124E-006	0.0000000E+000	-1.0004784E+002	4.5539464E-006	3.4802561E-006	5.7315451E-006	3.7388096E+001	6.374108459883988E-009
2.5136740E+000	1.4307175E+005	1.1368423E+005	1.8273925E+005	-3.8470512E+001	8.065266964415059E+001	-1.4881155E-002	2.4283208E-006	5.5694324E-001	2.1554986E-001	1.000000000000000E+000	14	1.1799741E-001	6.4571464E-007	4.278980859441099E-006	0.0000000E+000	-1.0004784E+002	4.2844022E-006	3.4043687E-006	5.4722782E-006	3.8470512E+001	-1.813996081202507E-008
2.2398219E+000	1.4799852E+005	1.2203491E+005	1.9182305E+005	-3.9507919E+001	8.226737182747456E+001	-1.4880448E-002	2.5675215E-006	5.8226746E-001	2.3566179E-001	1.000000000000000E+000	14	1.1800002E-001	6.1515038E-007	4.299807756610379E-006	0.0000000E+000	-1.0007188E+002	4.0221271E-006	3.3165195E-006	5.2131381E-006	3.9507919E+001	2.082689716927988E-008
1.9970604E+000	1.5315967E+005	1.3109783E+005	2.0160488E+005	-4.0562050E+001	8.407061337983487E+001	-1.4880965E-002	2.0320481E-006	6.0790175E-001	2.5705281E-001	1.000000000000000E+000	14	1.1800059E-001	5.8530622E-007	4.292033803509810E-006	0.0000000E+000	-1.0003180E+002	3.7682730E-006	3.2254736E-006	4.9601977E-006	4.0562050E+001	-7.773953100569084E-009
1.7796129E+000	1.5862114E+005	1.4120295E+005	2.1236511E+005	-4.1675156E+001	8.608988560904982E+001	-1.4875754E-002	2.7611666E-006	6.3336021E-001	2.8000903E-001	1.000000000000000E+000	14	1.1799917E-001	5.5564294E-007	4.286786319137712E-006	0.0000000E+000	-1.0007188E+002	3.5171813E-006	3.1309594E-006	4.7088715E-006	4.1675156E+001	-5.247484372098453E-009
1.5846854E+000	1.6423539E+005	1.5219700E+005	2.2391336E+005	-4.2821285E+001	8.834902622303343E+001	-1.4880660E-002	2.3075386E-006	6.5988916E-001	3.0487594E-001	1.000000000000000E+000	14	1.1799943E-001	5.2698704E-007	4.308642804414565E-006	0.0000000E+000	-1.0008792E+002	3.2757198E-006	3.0356109E-006	4.4660133E-006	4.2821285E+001	2.185648527685374E-008
1.4122382E+000	1.7040972E+005	1.6403006E+005	2.3652766E+005	-4.3907177E+001	9.087823471645243E+001	-1.4872736E-002	2.1877249E-006	6.8705058E-001	3.3042413E-001	1.000000000000000E+000	14	1.1799803E-001	4.9887626E-007	4.281366936614335E-006	0.0000000E+000	-1.0005585E+002	3.0460042E-006	2.9319704E-006	4.2278352E-006	4.3907177E+001	-2.727586780023052E-008
1.2596743E+000	1.7649867E+005	1.7675113E+005	2.4978539E+005	-4.5040943E+001	9.370695813084603E+001	-1.4875112E-002	2.4527765E-006	7.1482491E-001	3.5792330E-001	1.000000000000000E+000	14	1.1799825E-001	4.7239851E-007	4.314123546309904E-006	0.0000000E+000	-1.0011197E+002	2.8288334E-006	2.8328793E-006	4.0034365E-006	4.5040943E+001	3.275660969556945E-008
1.1224856E+000	1.8325253E+005	1.9100263E+005	2.6469509E+005	-4.6186317E+001	9.687498676130781E+001	-1.4871366E-002	2.8295219E-006	7.4233514E-001	3.8653326E-001	1.000000000000000E+000	14	1.1799941E-001	4.4579372E-007	4.289419287692630E-006	0.0000000E+000	-1.0010395E+002	2.6155208E-006	2.7261365E-006	3.7779319E-006	4.6186317E+001	-2.470425861727435E-008
1.0000638E+000	1.9026842E+005	2.0653731E+005	2.8081975E+005	-4.7347790E+001	1.004240905832266E+002	-1.4872618E-002	2.6973773E-006	7.7053773E-001	4.1680762E-001	1.000000000000000E+000	14	1.1799902E-001	4.2019488E-007	4.311398582933836E-006	0.0000000E+000	-1.0007990E+002	2.4127451E-006	2.6190464E-006	3.5610030E-006	4.7347790E+001	2.197929524120610E-008