EC-Lab ASCII FILE
Nb header lines : 75                          

Potentio Electrochemical Impedance Spectroscopy

Run on channel : 2 (SN 20919)
User : 
CE vs. WE compliance from -10 V to 10 V
Electrode connection : standard
Ewe ctrl range : min = -10.00 V, max = 10.00 V
Safety Limits :
	Do not start on E overload
Acquisition started on : 01/22/2020 09:36:40
Technique started on : 01/22/2020 09:36:41
Saved on :
	File : DE_49_6_30.mpr
	Directory : P:\Chemistry\Data\VMP3\Kyler\DOE\DE_49\30C\
	Host : 10.0.4.99
Device : VMP3 (SN 0183)
Address : USB
EC-Lab for windows v11.33 (software)
Internet server v11.32 (firmware)
Command interpretor v11.33 (firmware)
Electrode material : 
Initial state : 
Electrolyte : 
Comments : 
Electrode surface area : 0.001 cm²
Characteristic mass : 0.001 g
Equivalent Weight : 0.000 g/eq.
Density : 0.000 g/cm3
Record Analogic IN 1
Cycle Definition : Charge/Discharge alternance
External device configuration :
   device type : Thermostat
   device name : Other
   Analog OUT : 
      mode : E/V
      unit : T/°C
      max : 400.000 at 5.000 V
      min : -100.000 at 0.000 V
      current : 0.000
   Analog IN 1 : 
      unit : T/°C
      max : 400.000 at 5.000 V
      min : -100.000 at 0.000 V
Mode                Single sine         
E (V)               0.0000              
vs.                 Eoc                 
tE (h:m:s)          0:00:0.0000         
record              0                   
dI                  1.000               
unit dI             mA                  
dt (s)              0.000               
fi                  1.000               
unit fi             MHz                 
ff                  1.000               
unit ff             Hz                  
Nd                  20                  
Points              per decade          
spacing             Logarithmic         
Va (mV)             128.0               
pw                  0.50                
Na                  3                   
corr                0                   
E range min (V)     -10.000             
E range max (V)     10.000              
I Range             Auto                
Bandwidth           5                   
nc cycles           0                   
goto Ns'            0                   
nr cycles           0                   
inc. cycle          1                   

freq/Hz	Re(Z)/Ohm	-Im(Z)/Ohm	|Z|/Ohm	Phase(Z)/deg	time/s	<Ewe>/V	<I>/mA	Cs/µF	Cp/µF	cycle number	I Range	|Ewe|/V	|I|/A	(Q-Qo)/mA.h	Analog OUT/V	Analog IN 1/V	Re(Y)/Ohm-1	Im(Y)/Ohm-1	|Y|/Ohm-1	Phase(Y)/deg	dq/mA.h	
1.0000186E+006	6.3422607E+001	1.5791074E+002	1.7017117E+002	-6.8117836E+001	1.951493666012539E+000	-3.3644508E-003	2.0165187E-003	1.0078604E-003	8.6786412E-004	1.000000000000000E+000	11	2.6482616E-003	1.5562340E-005	1.572307113946913E-006	0.0000000E+000	-1.0009383E+002	2.1901415E-003	5.4530525E-003	5.8764359E-003	6.8117836E+001	1.572307113946913E-006
8.9124669E+005	7.1594612E+001	1.7084329E+002	1.8523828E+002	-6.7263100E+001	2.548476867697900E+000	-2.9461859E-003	2.0503437E-003	1.0452599E-003	8.8911649E-004	1.000000000000000E+000	11	4.9081417E-003	2.6496367E-005	1.802378822845235E-006	0.0000000E+000	-1.0007779E+002	2.0865023E-003	4.9789352E-003	5.3984523E-003	6.7263100E+001	2.300717088983221E-007
7.9433269E+005	8.1814728E+001	1.8515848E+002	2.0242853E+002	-6.6161125E+001	3.144486789329676E+000	-2.5919206E-003	2.0232105E-003	1.0821167E-003	9.0535282E-004	1.000000000000000E+000	11	8.3325636E-003	4.1162992E-005	2.225992138768763E-006	0.0000000E+000	-1.0008581E+002	1.9965861E-003	4.5185611E-003	4.9400153E-003	6.6161125E+001	4.236133159235274E-007
7.0794981E+005	9.3599533E+001	2.0108102E+002	2.2179822E+002	-6.5038887E+001	3.740478604304371E+000	-2.3130460E-003	2.0995943E-003	1.1180122E-003	9.1890927E-004	1.000000000000000E+000	11	1.3108878E-002	5.9102724E-005	2.469773866102817E-006	0.0000000E+000	-1.0005373E+002	1.9026439E-003	4.0874737E-003	4.5086024E-003	6.5038887E+001	2.437817273340545E-007
6.3095681E+005	1.0705526E+002	2.1885487E+002	2.4363556E+002	-6.3933926E+001	4.335481299232924E+000	-2.0673180E-003	1.9786083E-003	1.1525620E-003	9.3002664E-004	1.000000000000000E+000	11	1.9238170E-002	7.8962898E-005	2.986649065496749E-006	0.0000000E+000	-1.0006977E+002	1.8035437E-003	3.6870150E-003	4.1044913E-003	6.3933926E+001	5.168751993939317E-007
5.6234225E+005	1.2207009E+002	2.3758209E+002	2.6710739E+002	-6.2805824E+001	4.931473594187992E+000	-1.8569547E-003	2.1088871E-003	1.1912577E-003	9.4245648E-004	1.000000000000000E+000	11	2.6584210E-002	9.9526304E-005	3.095111366062257E-006	0.0000000E+000	-1.0010986E+002	1.7109504E-003	3.3299820E-003	3.7438124E-003	6.2805824E+001	1.084623005655079E-007
5.0120619E+005	1.3892126E+002	2.5692542E+002	2.9207840E+002	-6.1599617E+001	5.527472849207697E+000	-1.6823107E-003	2.1352775E-003	1.2359379E-003	9.5633906E-004	1.000000000000000E+000	11	3.4972396E-002	1.1973633E-004	3.125005741706344E-006	0.0000000E+000	-1.0008581E+002	1.6284330E-003	3.0116756E-003	3.4237383E-003	6.1599617E+001	2.989437564408719E-008
4.4668572E+005	1.5792606E+002	2.7693210E+002	3.1879779E+002	-6.0305187E+001	6.123493384133326E+000	-1.5525582E-003	2.0990383E-003	1.2866036E-003	9.7086921E-004	1.000000000000000E+000	11	4.4350564E-002	1.3911817E-004	3.334196316728291E-006	0.0000000E+000	-1.0007779E+002	1.5539004E-003	2.7248506E-003	3.1367845E-003	6.0305187E+001	2.091905750219465E-007
3.9810347E+005	1.7918239E+002	2.9698712E+002	3.4685397E+002	-5.8895996E+001	6.718470532417996E+000	-1.5183861E-003	2.0514620E-003	1.3461286E-003	9.8688935E-004	1.000000000000000E+000	11	5.4682959E-002	1.5765413E-004	3.687243748705239E-006	0.0000000E+000	-1.0007779E+002	1.4893678E-003	2.4685632E-003	2.8830576E-003	5.8895996E+001	3.530474319769484E-007
3.5480997E+005	2.0187857E+002	3.1734244E+002	3.7611325E+002	-5.7537369E+001	7.313485227321507E+000	-1.5094557E-003	1.9817699E-003	1.4135012E-003	1.0062716E-003	1.000000000000000E+000	11	6.5977186E-002	1.7541840E-004	3.691907166855849E-006	0.0000000E+000	-1.0006175E+002	1.4270953E-003	2.2433181E-003	2.6587737E-003	5.7537369E+001	4.663418150610294E-009
3.1622997E+005	2.2706006E+002	3.3735220E+002	4.0664822E+002	-5.6056873E+001	7.908472642273409E+000	-1.5082064E-003	2.0533213E-003	1.4918789E-003	1.0267457E-003	1.000000000000000E+000	11	7.8264773E-002	1.9246309E-004	4.253304001780634E-006	0.0000000E+000	-1.0012590E+002	1.3731025E-003	2.0400735E-003	2.4591279E-003	5.6056873E+001	5.613968349247846E-007
2.8183453E+005	2.5455609E+002	3.5704315E+002	4.3849585E+002	-5.4512798E+001	8.504490643885219E+000	-1.5361140E-003	2.1127926E-003	1.5816311E-003	1.0486140E-003	1.000000000000000E+000	11	9.1683425E-002	2.0908618E-004	4.339405368194599E-006	0.0000000E+000	-1.0012590E+002	1.3238919E-003	1.8569052E-003	2.2805233E-003	5.4512798E+001	8.610136641396447E-008
2.5118764E+005	2.8407388E+002	3.7587534E+002	4.7114780E+002	-5.2919243E+001	9.099493845511461E+000	-1.5544024E-003	2.0481185E-003	1.6856912E-003	1.0728806E-003	1.000000000000000E+000	11	1.0619300E-001	2.2539211E-004	4.786580757934037E-006	0.0000000E+000	-1.0013391E+002	1.2797260E-003	1.6932829E-003	2.1224762E-003	5.2919243E+001	4.471753897394387E-007
2.2387173E+005	3.1534088E+002	3.9375626E+002	5.0446393E+002	-5.1310402E+001	9.559481974021764E+000	-1.5956020E-003	2.0299049E-003	1.8054830E-003	1.0999884E-003	1.000000000000000E+000	11	1.2187675E-001	2.4159656E-004	5.142067532104395E-006	0.0000000E+000	-1.0008581E+002	1.2391391E-003	1.5472741E-003	1.9823024E-003	5.1310402E+001	3.554867741703577E-007
1.9954350E+005	3.4970288E+002	4.1363275E+002	5.4164948E+002	-4.9787388E+001	1.032247417027247E+001	-1.6108348E-003	2.1301817E-004	1.9282692E-003	1.1245036E-003	1.000000000000000E+000	12	5.6660507E-002	1.0460734E-004	5.440577213903048E-006	0.0000000E+000	-1.0006977E+002	1.1919624E-003	1.4098674E-003	1.8462124E-003	4.9787388E+001	2.985096817986534E-007
1.7783180E+005	3.8500302E+002	4.3008435E+002	5.7723468E+002	-4.8165722E+001	1.091849233189714E+001	-1.6194471E-003	2.1005301E-004	2.0809281E-003	1.1552062E-003	1.000000000000000E+000	12	6.7062125E-002	1.1617826E-004	5.638266203061600E-006	0.0000000E+000	-1.0010986E+002	1.1554717E-003	1.2907698E-003	1.7323976E-003	4.8165722E+001	1.976889891585514E-007
1.5848613E+005	4.2164487E+002	4.4523877E+002	6.1320630E+002	-4.6559029E+001	1.151449249355937E+001	-1.5896931E-003	2.3823266E-004	2.2554640E-003	1.1890733E-003	1.000000000000000E+000	12	7.8972876E-002	1.2878679E-004	5.735229635666959E-006	0.0000000E+000	-1.0006977E+002	1.1213305E-003	1.1840765E-003	1.6307726E-003	4.6559029E+001	9.696343260535878E-008
1.4125594E+005	4.5962601E+002	4.5914813E+002	6.4967151E+002	-4.4970200E+001	1.211048812183435E+001	-1.5971126E-003	2.1883802E-004	2.4539211E-003	1.2256842E-003	1.000000000000000E+000	12	9.2536896E-002	1.4243645E-004	5.808206576380245E-006	0.0000000E+000	-1.0009383E+002	1.0889726E-003	1.0878404E-003	1.5392394E-003	4.4970200E+001	7.297694071328621E-008
1.2590930E+005	4.9850189E+002	4.7161737E+002	6.8624127E+002	-4.3412590E+001	1.270747887020116E+001	-1.6011579E-003	2.1259091E-004	2.6802330E-003	1.2658973E-003	1.000000000000000E+000	12	1.0792622E-001	1.5727154E-004	5.841894910184945E-006	0.0000000E+000	-1.0007779E+002	1.0585543E-003	1.0014657E-003	1.4572134E-003	4.3412590E+001	3.368833380470006E-008
1.1220494E+005	5.3806659E+002	4.8289700E+002	7.2298352E+002	-4.1906929E+001	1.316649110536673E+001	-1.6121567E-003	2.2406068E-004	2.9373362E-003	1.3104060E-003	1.000000000000000E+000	12	1.2532632E-001	1.7334602E-004	5.761430457959553E-006	0.0000000E+000	-1.0007779E+002	1.0293884E-003	9.2384208E-004	1.3831574E-003	4.1906929E+001	-8.046445222539178E-008
1.0000371E+005	5.7837689E+002	4.9298721E+002	7.5997119E+002	-4.0443058E+001	1.376248382698395E+001	-1.5424889E-003	2.3741342E-004	3.2282590E-003	1.3584554E-003	1.000000000000000E+000	12	1.2936899E-001	1.7022881E-004	5.558562016778322E-006	0.0000000E+000	-1.0008581E+002	1.0014209E-003	8.5357449E-004	1.3158394E-003	4.0443058E+001	-2.028684411812316E-007
8.9129305E+004	6.1931122E+002	5.0201080E+002	7.9722095E+002	-3.9028065E+001	1.435847297529108E+001	-1.5053342E-003	2.1591061E-004	3.5570217E-003	1.4104422E-003	1.000000000000000E+000	12	1.3019641E-001	1.6331283E-004	5.528603603071436E-006	0.0000000E+000	-1.0008581E+002	9.7443198E-004	7.8987010E-004	1.2543574E-003	3.9028065E+001	-2.995841370688579E-008
7.9433273E+004	6.6046161E+002	5.0988287E+002	8.3438007E+002	-3.7668495E+001	1.495447649693233E+001	-1.4769230E-003	2.1563051E-004	3.9295903E-003	1.4674397E-003	1.000000000000000E+000	12	1.3012958E-001	1.5595960E-004	5.357622763945579E-006	0.0000000E+000	-1.0010184E+002	9.4867998E-004	7.3239033E-004	1.1984946E-003	3.7668495E+001	-1.709808391258566E-007
7.0794977E+004	7.0200665E+002	5.1712097E+002	8.7191022E+002	-3.6376572E+001	1.555049241860979E+001	-1.4456407E-003	2.2461955E-004	4.3473593E-003	1.5292071E-003	1.000000000000000E+000	12	1.3005325E-001	1.4915899E-004	5.422612443335108E-006	0.0000000E+000	-1.0005373E+002	9.2341664E-004	6.8021880E-004	1.1469071E-003	3.6376572E+001	6.498967938952901E-008
6.3093828E+004	7.4398218E+002	5.2336646E+002	9.0962738E+002	-3.5125099E+001	1.614647260689526E+001	-1.4207902E-003	2.3178066E-004	4.8197820E-003	1.5955562E-003	1.000000000000000E+000	12	1.2994969E-001	1.4286036E-004	5.527727683293860E-006	0.0000000E+000	-1.0005373E+002	8.9915690E-004	6.3252664E-004	1.0993512E-003	3.5125099E+001	1.051152399587515E-007
5.6237012E+004	7.8626862E+002	5.2873138E+002	9.4751001E+002	-3.3919113E+001	1.674147794183227E+001	-1.4073489E-003	2.2713673E-004	5.3525758E-003	1.6667305E-003	1.000000000000000E+000	12	1.2984461E-001	1.3703771E-004	5.610042296806771E-006	0.0000000E+000	-1.0004572E+002	8.7579672E-004	5.8893516E-004	1.0553978E-003	3.3919113E+001	8.231461351291107E-008
5.0122477E+004	8.2835492E+002	5.3351196E+002	9.8529535E+002	-3.2784046E+001	1.733647525004926E+001	-1.3769055E-003	2.3136963E-004	5.9517329E-003	1.7450140E-003	1.000000000000000E+000	12	1.2962836E-001	1.3156295E-004	5.592227035372667E-006	0.0000000E+000	-1.0008581E+002	8.5326441E-004	5.4955517E-004	1.0149241E-003	3.2784046E+001	-1.781526143410380E-008
4.4666715E+004	8.7088336E+002	5.3747113E+002	1.0233832E+003	-3.1681070E+001	1.793348978509312E+001	-1.3638557E-003	2.5557578E-004	6.6295033E-003	1.8285831E-003	1.000000000000000E+000	12	1.2952134E-001	1.2656192E-004	5.570910568060046E-006	0.0000000E+000	-1.0009383E+002	8.3154062E-004	5.1319052E-004	9.7715110E-004	3.1681070E+001	-2.131646731262104E-008
3.9814063E+004	9.1356116E+002	5.4082629E+002	1.0616436E+003	-3.0625444E+001	1.852947074672556E+001	-1.3808018E-003	2.2030996E-004	7.3913853E-003	1.9181563E-003	1.000000000000000E+000	12	1.2929401E-001	1.2178664E-004	5.588313234440445E-006	0.0000000E+000	-1.0009383E+002	8.1055070E-004	4.7984431E-004	9.4193575E-004	3.0625444E+001	1.740266638039929E-008
3.5480996E+004	9.5633594E+002	5.4348572E+002	1.0999796E+003	-2.9609570E+001	1.898849247521139E+001	-1.3355931E-003	2.5904478E-004	8.2534626E-003	2.0148521E-003	1.000000000000000E+000	12	1.3932757E-001	1.2666377E-004	5.709039237532933E-006	0.0000000E+000	-1.0007779E+002	7.9038955E-004	4.4917839E-004	9.0910774E-004	2.9609570E+001	1.207260030924875E-007
3.1621143E+004	9.9972101E+002	5.4584729E+002	1.1390309E+003	-2.8634525E+001	1.958348050349741E+001	-1.3366562E-003	2.3983573E-004	9.2208590E-003	2.1175942E-003	1.000000000000000E+000	12	1.3010335E-001	1.1422285E-004	5.596536757856989E-006	0.0000000E+000	-1.0010986E+002	7.7056239E-004	4.2072681E-004	8.7793934E-004	2.8634525E+001	-1.125024796759437E-007
2.8188096E+004	1.0427112E+003	5.4715179E+002	1.1775491E+003	-2.7687771E+001	2.004347889867495E+001	-1.3423790E-003	2.2141034E-004	1.0319212E-002	2.2279436E-003	1.000000000000000E+000	12	1.3712904E-001	1.1645292E-004	5.528351911374355E-006	0.0000000E+000	-1.0008581E+002	7.5197953E-004	3.9459337E-004	8.4922148E-004	2.7687771E+001	-6.818484648263421E-008
2.5116910E+004	1.0863568E+003	5.4793066E+002	1.2167166E+003	-2.6765213E+001	2.063947820695466E+001	-1.3325362E-003	2.3935077E-004	1.1564538E-002	2.3453124E-003	1.000000000000000E+000	12	1.2953509E-001	1.0646284E-004	5.683199165955658E-006	0.0000000E+000	-1.0010184E+002	7.3382695E-004	3.7012360E-004	8.2188408E-004	2.6765213E+001	1.548472545813029E-007
2.2389027E+004	1.1298273E+003	5.4819073E+002	1.2557957E+003	-2.5882603E+001	2.109948974879808E+001	-1.3230841E-003	2.4985027E-004	1.2967409E-002	2.4710335E-003	1.000000000000000E+000	12	1.3397942E-001	1.0668887E-004	5.708689983052156E-006	0.0000000E+000	-1.0005373E+002	7.1643054E-004	3.4761120E-004	7.9630793E-004	2.5882603E+001	2.549081709649828E-008
1.9948783E+004	1.1731951E+003	5.4739349E+002	1.2946144E+003	-2.5012981E+001	2.155948227734189E+001	-1.3324798E-003	2.3517337E-004	1.4574849E-002	2.6056885E-003	1.000000000000000E+000	12	1.3751620E-001	1.0622174E-004	5.691590343893242E-006	0.0000000E+000	-1.0010184E+002	6.9998606E-004	3.2660196E-004	7.7243079E-004	2.5012981E+001	-1.709963915891384E-008
1.7786895E+004	1.2164169E+003	5.4573883E+002	1.3332295E+003	-2.4163130E+001	2.201947264585760E+001	-1.3185909E-003	2.3321512E-004	1.6395897E-002	2.7472302E-003	1.000000000000000E+000	12	1.4025743E-001	1.0520127E-004	5.745225650653361E-006	0.0000000E+000	-1.0008581E+002	6.8434107E-004	3.0702588E-004	7.5005839E-004	2.4163130E+001	5.363530676011865E-008
1.5847686E+004	1.2601420E+003	5.4392114E+002	1.3725188E+003	-2.3346710E+001	2.261549331413698E+001	-1.3168950E-003	2.4475888E-004	1.8463684E-002	2.8997038E-003	1.000000000000000E+000	12	1.2940031E-001	9.4279443E-005	5.666561576490090E-006	0.0000000E+000	-1.0008581E+002	6.6893332E-004	2.8873494E-004	7.2858745E-004	2.3346710E+001	-7.866407416327036E-008
1.4121879E+004	1.3035712E+003	5.4087201E+002	1.4113257E+003	-2.2534325E+001	2.307547682934091E+001	-1.3222455E-003	2.2101843E-004	2.0836903E-002	3.0603257E-003	1.000000000000000E+000	12	1.3078013E-001	9.2664741E-005	5.744299506507458E-006	0.0000000E+000	-1.0003770E+002	6.5445568E-004	2.7154386E-004	7.0855365E-004	2.2534325E+001	7.773793001736784E-008
1.2590932E+004	1.3461445E+003	5.3686066E+002	1.4492496E+003	-2.1742783E+001	2.353547293119482E+001	-1.3261416E-003	2.3690755E-004	2.3545107E-002	3.2310036E-003	1.000000000000000E+000	12	1.3177174E-001	9.0924113E-005	5.697976576457020E-006	0.0000000E+000	-1.0007779E+002	6.4092217E-004	2.5560844E-004	6.9001224E-004	2.1742783E+001	-4.632293005043811E-008
1.1217711E+004	1.3883513E+003	5.3197253E+002	1.4867798E+003	-2.0965261E+001	2.399449060633197E+001	-1.3130545E-003	2.3300970E-004	2.6670227E-002	3.4143797E-003	1.000000000000000E+000	12	1.3245864E-001	8.9090965E-005	5.689816629968037E-006	0.0000000E+000	-1.0004572E+002	6.2806718E-004	2.4065559E-004	6.7259459E-004	2.0965261E+001	-8.159946488983178E-009
1.0002229E+004	1.4299531E+003	5.2623895E+002	1.5237104E+003	-2.0204185E+001	2.445448625480640E+001	-1.3224130E-003	2.2769475E-004	3.0237112E-002	3.6066284E-003	1.000000000000000E+000	12	1.3293281E-001	8.7242828E-005	5.666989313548482E-006	0.0000000E+000	-1.0010184E+002	6.1590952E-004	2.2666166E-004	6.5629266E-004	2.0204185E+001	-2.282731641955448E-008
8.9149297E+003	1.4713749E+003	5.1988696E+002	1.5605212E+003	-1.9460052E+001	2.493692587778787E+001	-1.2886513E-003	2.4212926E-004	3.4339447E-002	3.8112879E-003	1.000000000000000E+000	12	1.3322020E-001	8.5369036E-005	5.665955939336628E-006	0.0000000E+000	-1.0011788E+002	6.0420454E-004	2.1348607E-004	6.4081152E-004	1.9460052E+001	-1.033374211854600E-009
7.9439976E+003	1.5115540E+003	5.1252972E+002	1.5960834E+003	-1.8730497E+001	2.546297294276883E+001	-1.2714069E-003	2.3187207E-004	3.9089665E-002	4.0307785E-003	1.000000000000000E+000	12	1.3340428E-001	8.3582279E-005	5.771334866652776E-006	0.0000000E+000	-1.0006175E+002	5.9335213E-004	2.0119071E-004	6.2653370E-004	1.8730497E+001	1.053789273161485E-007
7.0822334E+003	1.5505414E+003	5.0503766E+002	1.6307181E+003	-1.8041309E+001	2.603988089016639E+001	-1.2500238E-003	2.4811557E-004	4.4496529E-002	4.2679161E-003	1.000000000000000E+000	12	1.3350274E-001	8.1867453E-005	5.748102792152673E-006	0.0000000E+000	-1.0010184E+002	5.8307656E-004	1.8991793E-004	6.1322679E-004	1.8041309E+001	-2.323207450010364E-008
6.3077344E+003	1.5893818E+003	4.9625119E+002	1.6650525E+003	-1.7339882E+001	2.667453380025108E+001	-1.2498747E-003	2.0020557E-004	5.0844640E-002	4.5164004E-003	1.000000000000000E+000	12	1.3354281E-001	8.0203361E-005	5.822455682426026E-006	0.0000000E+000	-1.0013391E+002	5.7328737E-004	1.7899698E-004	6.0058164E-004	1.7339882E+001	7.435289027335328E-008
5.6210552E+003	1.6266984E+003	4.8733374E+002	1.6981289E+003	-1.6677404E+001	2.737528647357249E+001	-1.2459784E-003	2.1762396E-004	5.8099955E-002	4.7850604E-003	1.000000000000000E+000	12	1.3354027E-001	7.8639656E-005	5.892083639617340E-006	0.0000000E+000	-1.0005373E+002	5.6411250E-004	1.6899941E-004	5.8888347E-004	1.6677404E+001	6.962795719131406E-008
5.0116035E+003	1.6622346E+003	4.7787827E+002	1.7295640E+003	-1.6039492E+001	2.813569674972678E+001	-1.2329472E-003	2.1512494E-004	6.6454768E-002	5.0732638E-003	1.000000000000000E+000	12	1.3351700E-001	7.7196913E-005	6.004798535912287E-006	0.0000000E+000	-1.0010986E+002	5.5567274E-004	1.5975116E-004	5.7818042E-004	1.6039492E+001	1.127148962949475E-007
4.4664292E+003	1.6966222E+003	4.6808151E+002	1.7600077E+003	-1.5423661E+001	2.889568318583042E+001	-1.2376265E-003	2.2844045E-004	7.6126911E-002	5.3845826E-003	1.000000000000000E+000	12	1.3347340E-001	7.5836826E-005	6.122594364027463E-006	0.0000000E+000	-1.0010184E+002	5.4771674E-004	1.5110971E-004	5.6817936E-004	1.5423661E+001	1.177958281151758E-007
3.9812742E+003	1.7296387E+003	4.5812402E+002	1.7892813E+003	-1.4835101E+001	2.965570471526007E+001	-1.2392111E-003	2.1464001E-004	8.7259956E-002	5.7203667E-003	1.000000000000000E+000	12	1.3342644E-001	7.4569856E-005	6.190700714477215E-006	0.0000000E+000	-1.0006977E+002	5.4025423E-004	1.4309546E-004	5.5888365E-004	1.4835101E+001	6.810635044975140E-008
3.5465955E+003	1.7613702E+003	4.4900830E+002	1.8177001E+003	-1.4301242E+001	3.041594907135004E+001	-1.2460157E-003	2.3409109E-004	9.9943399E-002	6.0984353E-003	1.000000000000000E+000	12	1.3337365E-001	7.3374948E-005	6.284264037584055E-006	0.0000000E+000	-1.0006175E+002	5.3309696E-004	1.3589702E-004	5.5014575E-004	1.4301242E+001	9.356332310683995E-008
3.1610112E+003	1.7914270E+003	4.3903595E+002	1.8444412E+003	-1.3770414E+001	3.117570990745298E+001	-1.2452328E-003	2.2027196E-004	1.1468167E-001	6.4977738E-003	1.000000000000000E+000	12	1.3332453E-001	7.2284514E-005	6.369488487218607E-006	0.0000000E+000	-1.0005373E+002	5.2658620E-004	1.2905370E-004	5.4216961E-004	1.3770414E+001	8.522444963455188E-008
2.8172952E+003	1.8197794E+003	4.3056595E+002	1.8700225E+003	-1.3311580E+001	3.193593391688773E+001	-1.2439837E-003	2.2497162E-004	1.3120431E-001	6.9555873E-003	1.000000000000000E+000	12	1.3327801E-001	7.1270806E-005	6.392411427195637E-006	0.0000000E+000	-1.0008581E+002	5.2038534E-004	1.2312493E-004	5.3475291E-004	1.3311580E+001	2.292293997703018E-008
2.5108032E+003	1.8450861E+003	4.2173480E+002	1.8926708E+003	-1.2875027E+001	3.269569456631871E+001	-1.2427719E-003	2.1661664E-004	1.5030313E-001	7.4627129E-003	1.000000000000000E+000	12	1.3318332E-001	7.0367925E-005	6.388098536510370E-006	0.0000000E+000	-1.0003770E+002	5.1507022E-004	1.1773058E-004	5.2835391E-004	1.2875027E+001	-4.312890685266666E-009
2.2378516E+003	1.8721561E+003	4.1582697E+002	1.9177802E+003	-1.2522749E+001	3.345592873575515E+001	-1.2449903E-003	2.1751173E-004	1.7103155E-001	8.0408854E-003	1.000000000000000E+000	12	1.3319042E-001	6.9450311E-005	6.439655442126322E-006	0.0000000E+000	-1.0004572E+002	5.0903123E-004	1.1306157E-004	5.2143622E-004	1.2522749E+001	5.155690561595168E-008
1.9956389E+003	1.8964332E+003	4.0961185E+002	1.9401652E+003	-1.2188122E+001	3.421570162518037E+001	-1.2329846E-003	2.1665388E-004	1.9469987E-001	8.6782724E-003	1.000000000000000E+000	12	1.3315146E-001	6.8628928E-005	6.471819468409295E-006	0.0000000E+000	-1.0010184E+002	5.0380232E-004	1.0881660E-004	5.1542005E-004	1.2188122E+001	3.216402628297342E-008
1.7782927E+003	1.9187234E+003	4.0507819E+002	1.9610170E+003	-1.1921149E+001	3.497596339459415E+001	-1.2398078E-003	2.2338625E-004	2.2094187E-001	9.4274236E-003	1.000000000000000E+000	12	1.3312310E-001	6.7884728E-005	6.574578011226852E-006	0.0000000E+000	-1.0011788E+002	4.9894152E-004	1.0533584E-004	5.0993951E-004	1.1921149E+001	1.027585428175569E-007
1.5855076E+003	1.9395316E+003	4.0242368E+002	1.9808402E+003	-1.1721696E+001	3.573570023071079E+001	-1.2411686E-003	2.1408022E-004	2.4944127E-001	1.0295239E-002	1.000000000000000E+000	12	1.3308403E-001	6.7185647E-005	6.571916275435796E-006	0.0000000E+000	-1.0010986E+002	4.9430836E-004	1.0256156E-004	5.0483627E-004	1.1721696E+001	-2.661735791055709E-009
1.4118373E+003	1.9597247E+003	4.0190759E+002	2.0005126E+003	-1.1589728E+001	3.649719509351416E+001	-1.2341964E-003	2.4419869E-004	2.8048477E-001	1.1320853E-002	1.000000000000000E+000	12	1.3306296E-001	6.6514433E-005	6.664012450269183E-006	0.0000000E+000	-1.0006977E+002	4.8968015E-004	1.0042542E-004	4.9987191E-004	1.1589728E+001	9.209617483338664E-008
1.2587914E+003	1.9791692E+003	4.0279834E+002	2.0197418E+003	-1.1503664E+001	3.725696046295343E+001	-1.2409822E-003	2.2215520E-004	3.1389087E-001	1.2484246E-002	1.000000000000000E+000	12	1.3303493E-001	6.5867294E-005	6.680638615799884E-006	0.0000000E+000	-1.0006977E+002	4.8516694E-004	9.8740638E-005	4.9511279E-004	1.1503664E+001	1.662616553070079E-008
1.1217948E+003	1.9976509E+003	4.0687238E+002	2.0386648E+003	-1.1512276E+001	3.801543223226327E+001	-1.2434244E-003	2.2689204E-004	3.4869725E-001	1.3889072E-002	1.000000000000000E+000	12	1.3301119E-001	6.5244269E-005	6.763906454095074E-006	0.0000000E+000	-1.0003770E+002	4.8064889E-004	9.7896365E-005	4.9051712E-004	1.1512276E+001	8.326783829519026E-008
1.0003201E+003	2.0161005E+003	4.1254767E+002	2.0578767E+003	-1.1564590E+001	3.877471130838967E+001	-1.2395467E-003	2.4207246E-004	3.8566214E-001	1.5499461E-002	1.000000000000000E+000	12	1.3299695E-001	6.4628235E-005	6.851659460614125E-006	0.0000000E+000	-1.0007779E+002	4.7607289E-004	9.7417149E-005	4.8593775E-004	1.1564590E+001	8.775300651905102E-008
8.9142657E+002	2.0325455E+003	4.2170276E+002	2.0758311E+003	-1.1721158E+001	3.953341875769547E+001	-1.2434059E-003	2.1946954E-004	4.2337781E-001	1.7472578E-002	1.000000000000000E+000	12	1.3297966E-001	6.4060929E-005	6.931653301109488E-006	0.0000000E+000	-1.0009383E+002	4.7168959E-004	9.7863885E-005	4.8173478E-004	1.1721158E+001	7.999384049536326E-008
7.9423773E+002	2.0489250E+003	4.3290021E+002	2.0941577E+003	-1.1930091E+001	4.029293527381378E+001	-1.2407212E-003	2.1650425E-004	4.6289426E-001	1.9780563E-002	1.000000000000000E+000	12	1.3296463E-001	6.3493128E-005	6.968147935439952E-006	0.0000000E+000	-1.0008581E+002	4.6720481E-004	9.8711789E-005	4.7751894E-004	1.1930091E+001	3.649463433046419E-008
7.0750946E+002	2.0664182E+003	4.4751974E+002	2.1143223E+003	-1.2219714E+001	4.105547101664706E+001	-1.2459039E-003	2.0650812E-004	5.0266153E-001	2.2519447E-002	1.000000000000000E+000	12	1.3295496E-001	6.2883017E-005	7.018776418230118E-006	0.0000000E+000	-1.0008581E+002	4.6224889E-004	1.0010825E-004	4.7296481E-004	1.2219714E+001	5.062848279016545E-008
6.3100964E+002	2.0833308E+003	4.6506537E+002	2.1346084E+003	-1.2583910E+001	4.181342899936135E+001	-1.2405721E-003	2.3852882E-004	5.4233813E-001	2.5743151E-002	1.000000000000000E+000	12	1.3294670E-001	6.2281542E-005	7.070607838270815E-006	0.0000000E+000	-1.0009383E+002	4.5721640E-004	1.0206518E-004	4.6847001E-004	1.2583910E+001	5.183142004069752E-008
5.6233929E+002	2.1008542E+003	4.8650140E+002	2.1564490E+003	-1.3038341E+001	4.256993300863542E+001	-1.2427720E-003	2.2090525E-004	5.8175159E-001	2.9609252E-002	1.000000000000000E+000	12	1.3293695E-001	6.1646235E-005	7.063405889216988E-006	0.0000000E+000	-1.0008581E+002	4.5177017E-004	1.0461784E-004	4.6372533E-004	1.3038341E+001	-7.201949053827131E-009
5.0144415E+002	2.1191023E+003	5.1104028E+002	2.1798525E+003	-1.3558497E+001	4.332716208460624E+001	-1.2442074E-003	2.1430351E-004	6.2107265E-001	3.4134887E-002	1.000000000000000E+000	12	1.3292649E-001	6.0979582E-005	7.152757838008660E-006	0.0000000E+000	-1.0010986E+002	4.4596184E-004	1.0754765E-004	4.5874662E-004	1.3558497E+001	8.935194879167184E-008
4.4685895E+002	2.1364360E+003	5.3967291E+002	2.2035439E+003	-1.4176595E+001	4.408392105388339E+001	-1.2425296E-003	2.1607515E-004	6.5996218E-001	3.9585568E-002	1.000000000000000E+000	12	1.3291945E-001	6.0320763E-005	7.132008438689152E-006	0.0000000E+000	-1.0007779E+002	4.3999369E-004	1.1114430E-004	4.5381440E-004	1.4176595E+001	-2.074939931950825E-008
3.9808920E+002	2.1567554E+003	5.7321271E+002	2.2316287E+003	-1.4883736E+001	4.484671986346075E+001	-1.2416161E-003	2.1665332E-004	6.9746739E-001	4.6016298E-002	1.000000000000000E+000	12	1.3291028E-001	5.9557526E-005	7.179008640704221E-006	0.0000000E+000	-1.0006977E+002	4.3306893E-004	1.1509911E-004	4.4810324E-004	1.4883736E+001	4.700020201506896E-008
3.5465955E+002	2.1766396E+003	6.1057733E+002	2.2606558E+003	-1.5669538E+001	4.560692976621795E+001	-1.2393789E-003	2.0952933E-004	7.3496699E-001	5.3614259E-002	1.000000000000000E+000	12	1.3290635E-001	5.8791062E-005	7.190168954148956E-006	0.0000000E+000	-1.0002166E+002	4.2590982E-004	1.1947356E-004	4.4234953E-004	1.5669538E+001	1.116031344473499E-008
3.1631586E+002	2.1972043E+003	6.5176953E+002	2.2918357E+003	-1.6522243E+001	4.636391454882687E+001	-1.2475631E-003	2.0289018E-004	7.7197832E-001	6.2434733E-002	1.000000000000000E+000	12	1.3289714E-001	5.7987203E-005	7.276014977918951E-006	0.0000000E+000	-1.0006977E+002	4.1831509E-004	1.2408724E-004	4.3633147E-004	1.6522243E+001	8.584602376999516E-008
2.8189429E+002	2.2192300E+003	6.9759521E+002	2.3262891E+003	-1.7450077E+001	4.711939015801181E+001	-1.2412620E-003	2.4537314E-004	8.0933881E-001	7.2779655E-002	1.000000000000000E+000	12	1.3289087E-001	5.7125686E-005	7.305120342942650E-006	0.0000000E+000	-1.0006175E+002	4.1008601E-004	1.2890689E-004	4.2986919E-004	1.7450077E+001	2.910536502369929E-008
2.5104436E+002	2.2426982E+003	7.5000946E+002	2.3647854E+003	-1.8491110E+001	4.787594158065622E+001	-1.2506018E-003	2.1070422E-004	8.4528452E-001	8.5026227E-002	1.000000000000000E+000	12	1.3288791E-001	5.6194494E-005	7.404011436624488E-006	0.0000000E+000	-1.0007779E+002	4.0103972E-004	1.3411682E-004	4.2287135E-004	1.8491110E+001	9.889109368183760E-008
2.2392513E+002	2.2678262E+003	8.0819385E+002	2.4075325E+003	-1.9614737E+001	4.863873239023087E+001	-1.2400314E-003	2.1064821E-004	8.7943095E-001	9.9103399E-002	1.000000000000000E+000	12	1.3288511E-001	5.5195564E-005	7.499986269424780E-006	0.0000000E+000	-1.0008581E+002	3.9125999E-004	1.3943482E-004	4.1536303E-004	1.9614737E+001	9.597483280029175E-008
1.9955299E+002	2.2965996E+003	8.7298926E+002	2.4569248E+003	-2.0812927E+001	4.940020802637446E+001	-1.2445244E-003	2.1913365E-004	9.1359335E-001	1.1534188E-001	1.000000000000000E+000	12	1.3288032E-001	5.4083997E-005	7.591804857604681E-006	0.0000000E+000	-1.0006175E+002	3.8045348E-004	1.4461896E-004	4.0701288E-004	2.0812927E+001	9.181858817990111E-008
1.7778128E+002	2.3261523E+003	9.4593048E+002	2.5111292E+003	-2.2129129E+001	5.016823683617986E+001	-1.2405721E-003	2.2034578E-004	9.4640034E-001	1.3429357E-001	1.000000000000000E+000	12	1.3287321E-001	5.2913729E-005	7.631047403620970E-006	0.0000000E+000	-1.0010184E+002	3.6889271E-004	1.5001031E-004	3.9822722E-004	2.2129129E+001	3.924254601628881E-008
1.5842838E+002	2.3564697E+003	1.0251736E+003	2.5698113E+003	-2.3511274E+001	5.093474479262659E+001	-1.2386705E-003	2.0870869E-004	9.7991806E-001	1.5594883E-001	1.000000000000000E+000	12	1.3286632E-001	5.1702755E-005	7.679841648207609E-006	0.0000000E+000	-1.0006175E+002	3.5682839E-004	1.5523689E-004	3.8913364E-004	2.3511274E+001	4.879424458663908E-008
1.4131134E+002	2.3883584E+003	1.1118121E+003	2.6344604E+003	-2.4962597E+001	5.168790448171785E+001	-1.2521677E-003	2.0882058E-004	1.0130053E+000	1.8042269E-001	1.000000000000000E+000	12	1.3285920E-001	5.0431274E-005	7.694718930865848E-006	0.0000000E+000	-1.0008581E+002	3.4412494E-004	1.6019467E-004	3.7958438E-004	2.4962597E+001	1.487728265823949E-008
1.2584569E+002	2.4237778E+003	1.2085149E+003	2.7083586E+003	-2.6501209E+001	5.269342556942138E+001	-1.2552438E-003	4.7756617E-005	1.0464772E+000	2.0836340E-001	1.000000000000000E+000	13	1.3329716E-001	4.9216953E-005	7.837152224158166E-006	0.0000000E+000	-1.0007779E+002	3.3043075E-004	1.6475540E-004	3.6922732E-004	2.6501209E+001	1.424332932923179E-007
1.1218996E+002	2.4607576E+003	1.3139456E+003	2.7895842E+003	-2.8100424E+001	5.343883341822948E+001	-1.2527084E-003	4.1577820E-005	1.0796643E+000	2.3953256E-001	1.000000000000000E+000	13	1.3326091E-001	4.7770885E-005	7.794457105584216E-006	0.0000000E+000	-1.0008581E+002	3.1622039E-004	1.6884896E-004	3.5847636E-004	2.8100424E+001	-4.269511857395027E-008
1.0003201E+002	2.5005149E+003	1.4309995E+003	2.8810300E+003	-2.9781729E+001	5.419867265432549E+001	-1.2510492E-003	4.4978518E-005	1.1118383E+000	2.7429953E-001	1.000000000000000E+000	13	1.3322103E-001	4.6240766E-005	7.789024996005941E-006	0.0000000E+000	-1.0011788E+002	3.0125471E-004	1.7240265E-004	3.4709807E-004	2.9781729E+001	-5.432109578274783E-009
8.9115974E+001	2.5434021E+003	1.5601216E+003	2.9837683E+003	-3.1524933E+001	5.496572831741651E+001	-1.2524287E-003	4.3542892E-005	1.1447381E+000	3.1296286E-001	1.000000000000000E+000	13	1.3318050E-001	4.4634999E-005	7.818991382921316E-006	0.0000000E+000	-1.0004572E+002	2.8568329E-004	1.7523799E-004	3.3514667E-004	3.1524933E+001	2.996638691537534E-008
7.9415527E+001	2.5900056E+003	1.7032190E+003	3.0998523E+003	-3.3329403E+001	5.573024302037084E+001	-1.2566048E-003	4.2416770E-005	1.1766416E+000	3.5522473E-001	1.000000000000000E+000	13	1.3314390E-001	4.2951691E-005	7.803001582563917E-006	0.0000000E+000	-1.0006175E+002	2.6953721E-004	1.7725093E-004	3.2259602E-004	3.3329403E+001	-1.598980035739940E-008
7.0838745E+001	2.6397832E+003	1.8602437E+003	3.2293904E+003	-3.5172184E+001	5.648140638935729E+001	-1.2569402E-003	4.3796383E-005	1.2077566E+000	4.0075412E-001	1.000000000000000E+000	13	1.3311401E-001	4.1219548E-005	7.830636205594399E-006	0.0000000E+000	-1.0006175E+002	2.5312041E-004	1.7837284E-004	3.0965597E-004	3.5172184E+001	2.763462303048247E-008
6.3082302E+001	2.6943621E+003	2.0360706E+003	3.3771541E+003	-3.7077545E+001	5.726181391980208E+001	-1.2514220E-003	4.4687622E-005	1.2391382E+000	4.5040551E-001	1.000000000000000E+000	13	1.3307673E-001	3.9404993E-005	7.830520449713629E-006	0.0000000E+000	-1.0006977E+002	2.3624042E-004	1.7852173E-004	2.9610732E-004	3.7077545E+001	-1.157558807701476E-010
5.6241817E+001	2.7528691E+003	2.2287517E+003	3.5419800E+003	-3.8993996E+001	5.800532910172478E+001	-1.2624771E-003	4.1130217E-005	1.2696941E+000	5.0272477E-001	1.000000000000000E+000	13	1.3304873E-001	3.7563375E-005	7.871882999289785E-006	0.0000000E+000	-1.0007779E+002	2.1942865E-004	1.7765175E-004	2.8232796E-004	3.8993996E+001	4.136254957615576E-008
5.0144413E+001	2.8178179E+003	2.4424790E+003	3.7290483E+003	-4.0918682E+001	5.876217644437565E+001	-1.2532676E-003	3.8928301E-005	1.2994714E+000	5.5748397E-001	1.000000000000000E+000	13	1.3302802E-001	3.5673449E-005	7.903179466848895E-006	0.0000000E+000	-1.0006977E+002	2.0263613E-004	1.7564461E-004	2.6816493E-004	4.0918682E+001	3.129646755911037E-008
4.4671219E+001	2.8858884E+003	2.6767793E+003	3.9361782E+003	-4.2847176E+001	5.952623909400427E+001	-1.2602400E-003	3.8676561E-005	1.3310052E+000	6.1553872E-001	1.000000000000000E+000	13	1.3299304E-001	3.3787353E-005	7.906278632354972E-006	0.0000000E+000	-1.0005373E+002	1.8626447E-004	1.7276789E-004	2.5405354E-004	4.2847176E+001	3.099165506076202E-009
3.9808922E+001	2.9617783E+003	2.9358086E+003	4.1702642E+003	-4.4747700E+001	6.028870910358091E+001	-1.2617873E-003	4.5103170E-005	1.3617958E+000	6.7490137E-001	1.000000000000000E+000	13	1.3297009E-001	3.1885294E-005	7.896154512230169E-006	0.0000000E+000	-1.0006977E+002	1.7030424E-004	1.6881093E-004	2.3979296E-004	4.4747700E+001	-1.012412012480221E-008
3.5465305E+001	3.0450339E+003	3.2232139E+003	4.4341108E+003	-4.6628239E+001	6.103913017918239E+001	-1.2621229E-003	3.7725582E-005	1.3922822E+000	7.3568594E-001	1.000000000000000E+000	13	1.3294266E-001	2.9981808E-005	7.916501632263539E-006	0.0000000E+000	-1.0007779E+002	1.5487419E-004	1.6393664E-004	2.2552436E-004	4.6628239E+001	2.034712003337000E-008
3.1629551E+001	3.1373308E+003	3.5365071E+003	4.7275498E+003	-4.8422901E+001	6.176346152022597E+001	-1.2637449E-003	2.5328813E-005	1.4228286E+000	7.9621327E-001	1.000000000000000E+000	13	1.3292328E-001	2.8116738E-005	7.951393451210504E-006	0.0000000E+000	-1.0010184E+002	1.4037445E-004	1.5823491E-004	2.1152606E-004	4.8422901E+001	3.489181894696509E-008
2.8170074E+001	3.2386221E+003	3.8859050E+003	5.0585503E+003	-5.0191227E+001	6.256775393182761E+001	-1.2489986E-003	3.7837312E-005	1.4539181E+000	8.5797012E-001	1.000000000000000E+000	13	1.3291088E-001	2.6274500E-005	7.984979198167215E-006	0.0000000E+000	-1.0005373E+002	1.2656339E-004	1.5185883E-004	1.9768509E-004	5.0191227E+001	3.358574695671074E-008
2.5104435E+001	3.3509563E+003	4.2733096E+003	5.4304771E+003	-5.1897896E+001	6.332393271438195E+001	-1.2598486E-003	3.8942755E-005	1.4835607E+000	9.1866696E-001	1.000000000000000E+000	13	1.3289514E-001	2.4472094E-005	7.988100548955623E-006	0.0000000E+000	-1.0010986E+002	1.1362994E-004	1.4490668E-004	1.8414589E-004	5.1897896E+001	3.121350788407856E-009
2.2385387E+001	3.4730581E+003	4.7090391E+003	5.8512549E+003	-5.3590107E+001	6.401041306697880E+001	-1.2617128E-003	3.5724715E-005	1.5098133E+000	9.7788948E-001	1.000000000000000E+000	13	1.3288252E-001	2.2710090E-005	7.961749324794861E-006	0.0000000E+000	-1.0008581E+002	1.0144112E-004	1.3754166E-004	1.7090351E-004	5.3590107E+001	-2.635122416076216E-008
1.9955299E+001	3.6106047E+003	5.1834058E+003	6.3169741E+003	-5.5140091E+001	6.477219739652355E+001	-1.2571639E-003	3.9528160E-005	1.5386742E+000	1.0359980E+000	1.000000000000000E+000	13	1.3287123E-001	2.1033999E-005	7.939686610356805E-006	0.0000000E+000	-1.0004572E+002	9.0481903E-005	1.2989636E-004	1.5830364E-004	5.5140091E+001	-2.206271443805603E-008
1.7796129E+001	3.7639841E+003	5.7051704E+003	6.8349502E+003	-5.6585182E+001	6.561655476994929E+001	-1.2545539E-003	3.2630636E-005	1.5675665E+000	1.0921757E+000	1.000000000000000E+000	13	1.3286150E-001	1.9438547E-005	7.943625049746641E-006	0.0000000E+000	-1.0005373E+002	8.0570688E-005	1.2212312E-004	1.4630685E-004	5.6585182E+001	3.938439389836190E-009
1.5857576E+001	3.9319021E+003	6.2974844E+003	7.4241606E+003	-5.8020962E+001	6.633893888426246E+001	-1.2629245E-003	3.5774974E-005	1.5937355E+000	1.1467155E+000	1.000000000000000E+000	13	1.3285170E-001	1.7894508E-005	8.045138366370843E-006	0.0000000E+000	-1.0006977E+002	7.1335875E-005	1.1425425E-004	1.3469536E-004	5.8020962E+001	1.015133166242017E-007
1.4118974E+001	4.1321206E+003	6.9356816E+003	8.0732954E+003	-5.9214481E+001	6.714124073568382E+001	-1.2584130E-003	4.1383199E-005	1.6252787E+000	1.1995116E+000	1.000000000000000E+000	13	1.3284439E-001	1.6454791E-005	7.995291586451459E-006	0.0000000E+000	-1.0008581E+002	6.3397376E-005	1.0641123E-004	1.2386516E-004	5.9214481E+001	-4.984677991938428E-008
1.2600808E+001	4.3619248E+003	7.6181494E+003	8.7785303E+003	-6.0205837E+001	6.803185472468613E+001	-1.2580401E-003	3.3724053E-005	1.6579531E+000	1.2486123E+000	1.000000000000000E+000	13	1.3283631E-001	1.5131954E-005	7.973861419594515E-006	0.0000000E+000	-1.0006977E+002	5.6602363E-005	9.8856646E-005	1.1391428E-004	6.0205837E+001	-2.143016685694394E-008
1.1224856E+001	4.6267061E+003	8.3824297E+003	9.5745254E+003	-6.1103371E+001	6.871589779717033E+001	-1.2613959E-003	3.0047317E-005	1.6914898E+000	1.2965066E+000	1.000000000000000E+000	13	1.3283190E-001	1.3873471E-005	8.042917366886387E-006	0.0000000E+000	-1.0002968E+002	5.0470477E-005	9.1439826E-005	1.0444382E-004	6.1103371E+001	6.905594729187260E-008
1.0003201E+001	4.9216826E+003	9.2386885E+003	1.0467871E+004	-6.1954643E+001	6.947669169998699E+001	-1.2548337E-003	3.7909602E-005	1.7221495E+000	1.3414508E+000	1.000000000000000E+000	13	1.3282937E-001	1.2689244E-005	8.073007767951115E-006	0.0000000E+000	-1.0004572E+002	4.4915567E-005	8.4312815E-005	9.5530406E-005	6.1954643E+001	3.009040106472787E-008
8.9183798E+000	5.2514175E+003	1.0182166E+004	1.1456609E+004	-6.2717735E+001	7.032103654005914E+001	-1.2580123E-003	3.6921407E-005	1.7526453E+000	1.3844018E+000	1.000000000000000E+000	13	1.3282688E-001	1.1593908E-005	8.015178863110729E-006	0.0000000E+000	-1.0006977E+002	4.0009611E-005	7.7576107E-005	8.7285858E-005	6.2717735E+001	-5.782890484038578E-008
7.9395342E+000	5.6455273E+003	1.1226615E+004	1.2566180E+004	-6.3303551E+001	7.125868474462914E+001	-1.2550107E-003	3.6566220E-005	1.7855675E+000	1.4251724E+000	1.000000000000000E+000	13	1.3282084E-001	1.0569707E-005	8.083257029829939E-006	0.0000000E+000	-1.0009383E+002	3.5751807E-005	7.1095536E-005	7.9578684E-005	6.3303551E+001	6.807816671920978E-008
7.0765405E+000	6.1007378E+003	1.2340033E+004	1.3765733E+004	-6.3692860E+001	7.181701258444809E+001	-1.2657394E-003	3.8888371E-005	1.8225640E+000	1.4645923E+000	1.000000000000000E+000	13	1.3281891E-001	9.6485164E-006	8.077867956299593E-006	0.0000000E+000	-1.0011788E+002	3.2194646E-005	6.5120483E-005	7.2644150E-005	6.3692860E+001	-5.389073530345589E-009
6.3105822E+000	6.6312344E+003	1.3576191E+004	1.5109145E+004	-6.3966995E+001	7.243719037392293E+001	-1.2578538E-003	3.4456567E-005	1.8576880E+000	1.4998537E+000	1.000000000000000E+000	13	1.3281262E-001	8.7902145E-006	8.042718069113461E-006	0.0000000E+000	-1.0004572E+002	2.9047895E-005	5.9470040E-005	6.6185086E-005	6.3966995E+001	-3.514988718613222E-008
5.6205034E+000	7.2325142E+003	1.4939661E+004	1.6598275E+004	-6.4167679E+001	7.312366509987623E+001	-1.2604451E-003	2.8439974E-005	1.8954145E+000	1.5355351E+000	1.000000000000000E+000	13	1.3281351E-001	8.0016453E-006	8.009954812199036E-006	0.0000000E+000	-1.0005373E+002	2.6252061E-005	5.4226908E-005	6.0247225E-005	6.4167679E+001	-3.276325691442505E-008
5.0144415E+000	7.9771689E+003	1.6375265E+004	1.8214953E+004	-6.4027084E+001	7.388117305582273E+001	-1.2736068E-003	3.5192985E-005	1.9382477E+000	1.5664978E+000	1.000000000000000E+000	13	1.3281484E-001	7.2915277E-006	8.039891684786401E-006	0.0000000E+000	-1.0007779E+002	2.4043225E-005	4.9355120E-005	5.4899949E-005	6.4027084E+001	2.993687258736510E-008
4.4693937E+000	8.8355039E+003	1.7915537E+004	1.9975801E+004	-6.3748615E+001	7.472248570909142E+001	-1.2613399E-003	4.4358592E-005	1.9876581E+000	1.5987957E+000	1.000000000000000E+000	13	1.3281348E-001	6.6487187E-006	8.140317209950757E-006	0.0000000E+000	-1.0004572E+002	2.2142309E-005	4.4897428E-005	5.0060571E-005	6.3748615E+001	1.004255251643558E-007
3.9778514E+000	9.8142861E+003	1.9682088E+004	2.1993289E+004	-6.3497299E+001	7.565919719359954E+001	-1.2508163E-003	3.2143616E-005	2.0328269E+000	1.6280298E+000	1.000000000000000E+000	13	1.3281475E-001	6.0388761E-006	8.139458927487339E-006	0.0000000E+000	-1.0004572E+002	2.0289826E-005	4.0690291E-005	4.5468416E-005	6.3497299E+001	-8.582824634180094E-010
3.5511365E+000	1.0946643E+004	2.1432877E+004	2.4066516E+004	-6.2944748E+001	7.670039321636432E+001	-1.2461368E-003	3.7552374E-005	2.0910881E+000	1.6584669E+000	1.000000000000000E+000	13	1.3281083E-001	5.5184901E-006	8.044311890474318E-006	0.0000000E+000	-1.0006175E+002	1.8899682E-005	3.7004454E-005	4.1551506E-005	6.2944748E+001	-9.514703701302101E-008
3.1603966E+000	1.2346481E+004	2.3375041E+004	2.6435357E+004	-6.2157398E+001	7.786224801823846E+001	-1.2487002E-003	4.0198956E-005	2.1543992E+000	1.6844594E+000	1.000000000000000E+000	13	1.3281012E-001	5.0239578E-006	8.136764854962342E-006	0.0000000E+000	-1.0009383E+002	1.7667408E-005	3.3448912E-005	3.7828126E-005	6.2157398E+001	9.245296448802440E-008
2.8183618E+000	1.3798130E+004	2.5565789E+004	2.9051643E+004	-6.1643787E+001	7.956164500566956E+001	-1.2406122E-003	2.7688893E-005	2.2088394E+000	1.7105713E+000	1.000000000000000E+000	14	1.3282958E-001	4.5721881E-006	8.177268772536182E-006	0.0000000E+000	-1.0005373E+002	1.6348535E-005	3.0291292E-005	3.4421460E-005	6.1643787E+001	4.050391757383983E-008
2.5136740E+000	1.5461730E+004	2.7937688E+004	3.1930855E+004	-6.1038265E+001	8.100565046092015E+001	-1.2381700E-003	2.3837370E-005	2.2663174E+000	1.7349243E+000	1.000000000000000E+000	14	1.3282384E-001	4.1597332E-006	8.071142256138538E-006	0.0000000E+000	-1.0008581E+002	1.5164812E-005	2.7401187E-005	3.1317672E-005	6.1038265E+001	-1.061265163976445E-007
2.2398219E+000	1.7544137E+004	3.0167432E+004	3.4898004E+004	-5.9819481E+001	8.262039941755938E+001	-1.2345832E-003	2.0067420E-005	2.3554196E+000	1.7601261E+000	1.000000000000000E+000	14	1.3282511E-001	3.8060946E-006	8.119739402890142E-006	0.0000000E+000	-1.0005373E+002	1.4405582E-005	2.4770638E-005	2.8654935E-005	5.9819481E+001	4.859714675160396E-008
1.9970604E+000	1.9946607E+004	3.2481563E+004	3.8117176E+004	-5.8446323E+001	8.442465574331436E+001	-1.2344060E-003	2.4404841E-005	2.4535336E+000	1.7816582E+000	1.000000000000000E+000	14	1.3282239E-001	3.4845814E-006	8.190713246104427E-006	0.0000000E+000	-1.0010986E+002	1.3728644E-005	2.2356073E-005	2.6234893E-005	5.8446323E+001	7.097384321428485E-008
1.7796129E+000	2.2811916E+004	3.4474039E+004	4.1338152E+004	-5.6506878E+001	8.644184949243208E+001	-1.2363927E-003	2.5682586E-005	2.5941937E+000	1.8041998E+000	1.000000000000000E+000	14	1.3281754E-001	3.2129528E-006	8.075256622062726E-006	0.0000000E+000	-1.0005373E+002	1.3349336E-005	2.0173908E-005	2.4190727E-005	5.6506878E+001	-1.154566240417005E-007
1.5846854E+000	2.5794109E+004	3.7119691E+004	4.5201855E+004	-5.5204941E+001	8.870099677308463E+001	-1.2349386E-003	2.4249732E-005	2.7056570E+000	1.8246052E+000	1.000000000000000E+000	14	1.3281488E-001	2.9382618E-006	8.250428058962043E-006	0.0000000E+000	-1.0009383E+002	1.2624321E-005	1.8167360E-005	2.2122986E-005	5.5204941E+001	1.751714368993167E-007
1.4122382E+000	2.9264217E+004	3.9351578E+004	4.9040199E+004	-5.3363274E+001	9.123016587985330E+001	-1.2320459E-003	3.2443229E-005	2.8638482E+000	1.8440379E+000	1.000000000000000E+000	14	1.3281620E-001	2.7083126E-006	8.118818365498088E-006	0.0000000E+000	-1.0008581E+002	1.2168372E-005	1.6362805E-005	2.0391435E-005	5.3363274E+001	-1.316096934639547E-007
1.2596743E+000	3.3098254E+004	4.1350984E+004	5.2966012E+004	-5.1325436E+001	9.405892332090298E+001	-1.2337695E-003	2.9298737E-005	3.0554557E+000	1.8623151E+000	1.000000000000000E+000	14	1.3281411E-001	2.5075346E-006	8.252263651076848E-006	0.0000000E+000	-1.0004572E+002	1.1798059E-005	1.4739790E-005	1.8880031E-005	5.1325436E+001	1.334452855787599E-007
1.1224856E+000	3.7362207E+004	4.2898180E+004	5.6887508E+004	-4.8945736E+001	9.722715272466303E+001	-1.2351261E-003	2.9035871E-005	3.3052206E+000	1.8795089E+000	1.000000000000000E+000	14	1.3281302E-001	2.3346606E-006	8.205440612497417E-006	0.0000000E+000	-1.0010184E+002	1.1545127E-005	1.3255773E-005	1.7578552E-005	4.8945736E+001	-4.682303857943073E-008
1.0000638E+000	4.1852512E+004	4.3590613E+004	6.0429914E+004	-4.6165359E+001	1.007762546266022E+002	-1.2250663E-003	1.8340103E-005	3.6508961E+000	1.8996844E+000	1.000000000000000E+000	14	1.3281439E-001	2.1978253E-006	8.253316044676024E-006	0.0000000E+000	-1.0008581E+002	1.1460871E-005	1.1936831E-005	1.6548096E-005	4.6165359E+001	4.787543217860688E-008