EC-Lab ASCII FILE
Nb header lines : 75                          

Potentio Electrochemical Impedance Spectroscopy

Run on channel : 3 (SN 20921)
User : 
CE vs. WE compliance from -10 V to 10 V
Electrode connection : standard
Ewe ctrl range : min = -10.00 V, max = 10.00 V
Safety Limits :
	Do not start on E overload
Acquisition started on : 01/24/2020 09:53:15
Technique started on : 01/24/2020 09:53:16
Saved on :
	File : DE_40_11_60.mpr
	Directory : P:\Chemistry\Data\VMP3\Kyler\DOE\DE_40\2ND 60C\
	Host : 10.0.4.99
Device : VMP3 (SN 0183)
Address : USB
EC-Lab for windows v11.33 (software)
Internet server v11.32 (firmware)
Command interpretor v11.33 (firmware)
Electrode material : 
Initial state : 
Electrolyte : 
Comments : 
Electrode surface area : 0.001 cm²
Characteristic mass : 0.001 g
Equivalent Weight : 0.000 g/eq.
Density : 0.000 g/cm3
Record Analogic IN 1
Cycle Definition : Charge/Discharge alternance
External device configuration :
   device type : Thermostat
   device name : Other
   Analog OUT : 
      mode : E/V
      unit : T/°C
      max : 400.000 at 5.000 V
      min : -100.000 at 0.000 V
      current : 0.000
   Analog IN 1 : 
      unit : T/°C
      max : 400.000 at 5.000 V
      min : -100.000 at 0.000 V
Mode                Single sine         
E (V)               0.0000              
vs.                 Eoc                 
tE (h:m:s)          0:00:0.0000         
record              0                   
dI                  1.000               
unit dI             mA                  
dt (s)              0.000               
fi                  1.000               
unit fi             MHz                 
ff                  1.000               
unit ff             Hz                  
Nd                  20                  
Points              per decade          
spacing             Logarithmic         
Va (mV)             128.0               
pw                  0.50                
Na                  3                   
corr                0                   
E range min (V)     -10.000             
E range max (V)     10.000              
I Range             Auto                
Bandwidth           5                   
nc cycles           0                   
goto Ns'            0                   
nr cycles           0                   
inc. cycle          1                   

freq/Hz	Re(Z)/Ohm	-Im(Z)/Ohm	|Z|/Ohm	Phase(Z)/deg	time/s	<Ewe>/V	<I>/mA	Cs/µF	Cp/µF	cycle number	I Range	|Ewe|/V	|I|/A	(Q-Qo)/mA.h	Analog OUT/V	Analog IN 1/V	Re(Y)/Ohm-1	Im(Y)/Ohm-1	|Y|/Ohm-1	Phase(Y)/deg	dq/mA.h	
1.0000186E+006	2.0592369E+001	-6.0354123E+000	2.1458609E+001	1.6335320E+001	1.846600087737897E+000	2.0717893E-002	2.4591875E-001	-2.6369696E-002	-2.0860077E-003	1.000000000000000E+000	9	3.1516887E-005	1.4687292E-006	2.591272316793200E-005	0.0000000E+000	-1.0007188E+002	4.4720147E-002	-1.3107016E-002	4.6601344E-002	-1.6335320E+001	2.591272316793200E-005
8.9124669E+005	7.7427147E+001	3.6376801E+001	8.5546684E+001	-2.5165062E+001	3.022476863552583E+000	2.1057965E-002	2.1387399E-003	4.9090530E-003	8.8764710E-004	1.000000000000000E+000	11	4.9202837E-004	5.7515772E-006	5.039813636257047E-005	0.0000000E+000	-1.0011999E+002	1.0580030E-002	4.9707065E-003	1.1689524E-002	2.5165062E+001	2.448541319463847E-005
7.9433269E+005	8.1367874E+001	3.4148045E+001	8.8242958E+001	-2.2766563E+001	3.618485371844145E+000	2.1408344E-002	2.2528095E-003	5.8674831E-003	8.7866519E-004	1.000000000000000E+000	11	1.4495970E-003	1.6427339E-005	5.082324896073583E-005	0.0000000E+000	-1.0007188E+002	1.0449436E-002	4.3853647E-003	1.1332349E-002	2.2766563E+001	4.251125981653668E-007
7.0794981E+005	8.5704140E+001	3.2362358E+001	9.1610710E+001	-2.0686813E+001	4.213471933413530E+000	2.1714512E-002	2.2936293E-003	6.9466829E-003	8.6689263E-004	1.000000000000000E+000	11	3.0107538E-003	3.2864649E-005	5.128812957401614E-005	0.0000000E+000	-1.0009594E+002	1.0211965E-002	3.8560943E-003	1.0915754E-002	2.0686813E+001	4.648806132803021E-007
6.3095681E+005	8.9426460E+001	3.0776352E+001	9.4574181E+001	-1.8991037E+001	4.808477721671807E+000	2.1964766E-002	2.2000631E-003	8.1960270E-003	8.6794555E-004	1.000000000000000E+000	11	5.2742106E-003	5.5767978E-005	5.163897929352283E-005	0.0000000E+000	-1.0007990E+002	9.9981781E-003	3.4408993E-003	1.0573710E-002	1.8991037E+001	3.508497195066931E-007
5.6234225E+005	9.2769943E+001	2.9218317E+001	9.7262390E+001	-1.7482059E+001	5.404470123321516E+000	2.2188984E-002	2.3761999E-003	9.6864412E-003	8.7414758E-004	1.000000000000000E+000	11	8.2975663E-003	8.5311149E-005	5.191842565368764E-005	0.0000000E+000	-1.0006387E+002	9.8065771E-003	3.0886263E-003	1.0281467E-002	1.7482059E+001	2.794463601648079E-007
5.0120619E+005	9.5770508E+001	2.7632648E+001	9.9677246E+001	-1.6094429E+001	6.000478364963783E+000	2.2337044E-002	2.1853410E-003	1.1491619E-002	8.8314939E-004	1.000000000000000E+000	11	1.2091026E-002	1.2130177E-004	5.214499536674288E-005	0.0000000E+000	-1.0006387E+002	9.6391719E-003	2.7811888E-003	1.0032380E-002	1.6094429E+001	2.265697130552429E-007
4.4668572E+005	9.8393066E+001	2.5959524E+001	1.0175997E+002	-1.4779835E+001	6.596481913264142E+000	2.2465369E-002	2.2505776E-003	1.3725284E-002	8.9322490E-004	1.000000000000000E+000	11	1.6714718E-002	1.6425631E-004	5.254566386450945E-005	0.0000000E+000	-1.0010395E+002	9.5019015E-003	2.5069334E-003	9.8270467E-003	1.4779835E+001	4.006684977665722E-007
3.9810347E+005	1.0061243E+002	2.4355606E+001	1.0351839E+002	-1.3608015E+001	7.191493834863650E+000	2.2518525E-002	2.3614783E-003	1.6414410E-002	9.0863224E-004	1.000000000000000E+000	11	2.2125451E-002	2.1373450E-004	5.296516092325692E-005	0.0000000E+000	-1.0010395E+002	9.3889413E-003	2.2728143E-003	9.6601192E-003	1.3608015E+001	4.194970587474643E-007
3.5480997E+005	1.0250109E+002	2.2665716E+001	1.0497718E+002	-1.2468972E+001	7.787494983203942E+000	2.2510622E-002	2.3249497E-003	1.9790415E-002	9.2257984E-004	1.000000000000000E+000	11	2.8418422E-002	2.7071047E-004	5.393500412943023E-005	0.0000000E+000	-1.0010395E+002	9.3011940E-003	2.0567412E-003	9.5258802E-003	1.2468972E+001	9.698432061733112E-007
3.1622997E+005	1.0407695E+002	2.1001017E+001	1.0617464E+002	-1.1408158E+001	8.383470851491438E+000	2.2519568E-002	2.3051947E-003	2.3964964E-002	9.3759625E-004	1.000000000000000E+000	11	3.5530992E-002	3.3464670E-004	5.511330145985186E-005	0.0000000E+000	-1.0005585E+002	9.2323655E-003	1.8629396E-003	9.4184456E-003	1.1408158E+001	1.178297330421631E-006
2.8183453E+005	1.0540146E+002	1.9405581E+001	1.0717297E+002	-1.0431967E+001	8.979487199831055E+000	2.2503056E-002	2.2272866E-003	2.9100424E-002	9.5407397E-004	1.000000000000000E+000	11	4.3612491E-002	4.0693558E-004	5.456859402081722E-005	0.0000000E+000	-1.0006387E+002	9.1764806E-003	1.6894921E-003	9.3307113E-003	1.0431967E+001	-5.447074390346399E-007
2.5118764E+005	1.0643054E+002	1.7932131E+001	1.0793063E+002	-9.5637541E+000	9.575484454777325E+000	2.2492971E-002	2.1359574E-003	3.5333768E-002	9.7535859E-004	1.000000000000000E+000	11	5.2596126E-002	4.8731416E-004	5.535548794106903E-005	0.0000000E+000	-1.0010395E+002	9.1364365E-003	1.5393681E-003	9.2652105E-003	9.5637541E+000	7.868939202518153E-007
2.2387173E+005	1.0729610E+002	1.6570326E+001	1.0856808E+002	-8.7791452E+000	1.017048018969945E+001	2.2553397E-002	2.4867398E-003	4.2903211E-002	9.9941890E-004	1.000000000000000E+000	11	6.2631547E-002	5.7688728E-004	5.612403869578136E-005	0.0000000E+000	-1.0011999E+002	9.1028959E-003	1.4058102E-003	9.2108101E-003	8.7791452E+000	7.685507547123272E-007
1.9954350E+005	1.0798139E+002	1.5338434E+001	1.0906534E+002	-8.0846090E+000	1.076747755138786E+001	2.2532057E-002	2.2679267E-003	5.1999781E-002	1.0284664E-003	1.000000000000000E+000	11	7.3548466E-002	6.7435234E-004	5.673596606168070E-005	0.0000000E+000	-1.0003180E+002	9.0776915E-003	1.2894591E-003	9.1688158E-003	8.0846090E+000	6.119273658993415E-007
1.7783180E+005	1.0853366E+002	1.4251560E+001	1.0946535E+002	-7.4807124E+000	1.136247771300259E+001	2.2532765E-002	2.2116413E-003	6.2798359E-002	1.0644366E-003	1.000000000000000E+000	11	8.5359432E-002	7.7978498E-004	5.624788805292660E-005	0.0000000E+000	-1.0011197E+002	9.0575581E-003	1.1893484E-003	9.1353115E-003	7.4807124E+000	-4.880780087540985E-007
1.5848613E+005	1.0897131E+002	1.3310769E+001	1.0978125E+002	-6.9641399E+000	1.195848435463267E+001	2.2564879E-002	2.4282245E-003	7.5444177E-002	1.1091128E-003	1.000000000000000E+000	11	9.8026566E-002	8.9292630E-004	5.665640791408562E-005	0.0000000E+000	-1.0009594E+002	9.0418197E-003	1.1044519E-003	9.1090240E-003	6.9641399E+000	4.085198611590172E-007
1.4125594E+005	1.0932336E+002	1.2503942E+001	1.1003611E+002	-6.5248938E+000	1.255448875625734E+001	2.2544023E-002	2.1829384E-003	9.0108655E-002	1.1635630E-003	1.000000000000000E+000	11	1.1153687E-001	1.0136388E-003	5.737183676753193E-005	0.0000000E+000	-1.0007990E+002	9.0290597E-003	1.0327054E-003	9.0879258E-003	6.5248938E+000	7.154288534463079E-007
1.2590930E+005	1.0962362E+002	1.1837284E+001	1.1026087E+002	-6.1629848E+000	1.301447088478017E+001	2.2568850E-002	2.3883395E-003	1.0678501E-001	1.2307549E-003	1.000000000000000E+000	11	1.2602088E-001	1.1429338E-003	5.812261695988612E-005	0.0000000E+000	-1.0011999E+002	9.0169841E-003	9.7366434E-004	9.0694008E-003	6.1629848E+000	7.507801923541943E-007
1.1220494E+005	1.0986121E+002	1.1306244E+001	1.1044147E+002	-5.8758450E+000	1.361048211311572E+001	2.2683736E-002	2.8550557E-003	1.2545553E-001	1.3148075E-003	1.000000000000000E+000	11	1.2894972E-001	1.1675842E-003	5.788926883173796E-005	0.0000000E+000	-1.0007990E+002	9.0069985E-003	9.2694513E-004	9.0545705E-003	5.8758450E+000	-2.333481281481647E-007
1.0000371E+005	1.1006723E+002	1.0898378E+001	1.1060547E+002	-5.6547470E+000	1.420648838140187E+001	2.2633580E-002	2.1620656E-003	1.4603001E-001	1.4177925E-003	1.000000000000000E+000	11	1.2965921E-001	1.1722676E-003	5.633856901146323E-005	0.0000000E+000	-1.0007990E+002	8.9971479E-003	8.9085841E-004	9.0411445E-003	5.6547470E+000	-1.550699820274732E-006
8.9129305E+004	1.1021680E+002	1.0612482E+001	1.1072654E+002	-5.4999032E+000	1.480149376965710E+001	2.2676690E-002	2.2025111E-003	1.6826068E-001	1.5456571E-003	1.000000000000000E+000	11	1.2965623E-001	1.1709589E-003	5.458413946379248E-005	0.0000000E+000	-1.0010395E+002	8.9896815E-003	8.6559256E-004	9.0312585E-003	5.4999032E+000	-1.754429547670752E-006
7.9433273E+004	1.1036601E+002	1.0458670E+001	1.1086046E+002	-5.4133830E+000	1.539648126458633E+001	2.2683306E-002	1.9872340E-003	1.9157605E-001	1.7050644E-003	1.000000000000000E+000	11	1.2960389E-001	1.1690723E-003	5.588108584095931E-005	0.0000000E+000	-1.0005585E+002	8.9801177E-003	8.5098739E-004	9.0203490E-003	5.4133830E+000	1.296946377166834E-006
7.0794977E+004	1.1046665E+002	1.0423509E+001	1.1095734E+002	-5.3904047E+000	1.599248478622758E+001	2.2748819E-002	2.3730572E-003	2.1567696E-001	1.9033540E-003	1.000000000000000E+000	11	1.2946974E-001	1.1668425E-003	5.618197083761657E-005	0.0000000E+000	-1.0006387E+002	8.9726169E-003	8.4664597E-004	9.0124728E-003	5.3904047E+000	3.008849966572571E-007
6.3093828E+004	1.1056937E+002	1.0514268E+001	1.1106815E+002	-5.4320397E+000	1.658949145462248E+001	2.2762798E-002	2.2593599E-003	2.3991325E-001	2.1499740E-003	1.000000000000000E+000	11	1.2944868E-001	1.1654887E-003	5.750196825869433E-005	0.0000000E+000	-1.0011197E+002	8.9630475E-003	8.5231464E-004	9.0034809E-003	5.4320397E+000	1.319997421077763E-006
5.6237012E+004	1.1065790E+002	1.0726903E+001	1.1117661E+002	-5.5368114E+000	1.718547145623597E+001	2.2783821E-002	2.3100574E-003	2.6382962E-001	2.4560965E-003	1.000000000000000E+000	11	1.2951741E-001	1.1649700E-003	5.626638881249689E-005	0.0000000E+000	-1.0007990E+002	8.9527331E-003	8.6785579E-004	8.9946985E-003	5.5368114E+000	-1.235579446197436E-006
5.0122477E+004	1.1073689E+002	1.1068087E+001	1.1128864E+002	-5.7077236E+000	1.778048927118653E+001	2.2789003E-002	2.2636461E-003	2.8688976E-001	2.8376479E-003	1.000000000000000E+000	11	1.2917641E-001	1.1607332E-003	5.584214066939118E-005	0.0000000E+000	-1.0009594E+002	8.9410944E-003	8.9365715E-004	8.9856433E-003	5.7077236E+000	-4.242481431057147E-007
4.4666715E+004	1.1083118E+002	1.1539620E+001	1.1143031E+002	-5.9441552E+000	1.824047051966772E+001	2.2807436E-002	2.3277688E-003	3.0877677E-001	3.3114708E-003	1.000000000000000E+000	11	1.4005657E-001	1.2568983E-003	5.694213191371980E-005	0.0000000E+000	-1.0011999E+002	8.9259669E-003	9.2936179E-004	8.9742187E-003	5.9441552E+000	1.099991244328620E-006
3.9814063E+004	1.1090793E+002	1.2151317E+001	1.1157160E+002	-6.2525129E+000	1.883547836125945E+001	2.2836717E-002	2.4466801E-003	3.2897305E-001	3.9021112E-003	1.000000000000000E+000	11	1.3034858E-001	1.1682953E-003	5.813247205371347E-005	0.0000000E+000	-1.0009594E+002	8.9095384E-003	9.7614864E-004	8.9628538E-003	6.2525129E+000	1.190340139993672E-006
3.5480996E+004	1.1100792E+002	1.2904584E+001	1.1175548E+002	-6.6308270E+000	1.929548672979581E+001	2.2815321E-002	2.1766040E-003	3.4760043E-001	4.6347966E-003	1.000000000000000E+000	11	1.3967061E-001	1.2497876E-003	5.753692391695869E-005	0.0000000E+000	-1.0008792E+002	8.8882511E-003	1.0332522E-003	8.9481073E-003	6.6308270E+000	-5.955481367547866E-007
3.1621143E+004	1.1110239E+002	1.3824431E+001	1.1195918E+002	-7.0928378E+000	1.989048942472436E+001	2.2850081E-002	2.3676502E-003	3.6407870E-001	5.5509903E-003	1.000000000000000E+000	11	1.3009617E-001	1.1619965E-003	6.011223491768922E-005	0.0000000E+000	-1.0007188E+002	8.8634752E-003	1.1028791E-003	8.9318268E-003	7.0928378E+000	2.575311000730534E-006
2.8188096E+004	1.1121545E+002	1.4893476E+001	1.1220826E+002	-7.6274147E+000	2.035047256658436E+001	2.2845626E-002	2.3939323E-003	3.7910396E-001	6.6788364E-003	1.000000000000000E+000	11	1.3760808E-001	1.2263632E-003	6.001003157099735E-005	0.0000000E+000	-1.0010395E+002	8.8331476E-003	1.1828955E-003	8.9119999E-003	7.6274147E+000	-1.022033466918748E-007
2.5116910E+004	1.1133222E+002	1.6144455E+001	1.1249670E+002	-8.2510338E+000	2.094647395485663E+001	2.2854740E-002	2.3087519E-003	3.9249173E-001	8.0834683E-003	1.000000000000000E+000	11	1.2966594E-001	1.1526200E-003	5.937494275232570E-005	0.0000000E+000	-1.0006387E+002	8.7971361E-003	1.2756862E-003	8.8891499E-003	8.2510338E+000	-6.350888186716454E-007
2.2389027E+004	1.1148788E+002	1.7582886E+001	1.1286587E+002	-8.9623661E+000	2.140648949673050E+001	2.2853771E-002	2.3244091E-003	4.0429163E-001	9.8118251E-003	1.000000000000000E+000	11	1.3540891E-001	1.1997330E-003	6.082953482535797E-005	0.0000000E+000	-1.0007188E+002	8.7519009E-003	1.3802728E-003	8.8600749E-003	8.9623661E+000	1.454592073032268E-006
1.9948783E+004	1.1165794E+002	1.9238100E+001	1.1330313E+002	-9.7757940E+000	2.186548135851626E+001	2.2849316E-002	2.3512493E-003	4.1470718E-001	1.1955895E-002	1.000000000000000E+000	11	1.4058058E-001	1.2407475E-003	6.061475771739303E-005	0.0000000E+000	-1.0009594E+002	8.6977268E-003	1.4985744E-003	8.8258814E-003	9.7757940E+000	-2.147771079649409E-007
1.7786895E+004	1.1183868E+002	2.1107380E+001	1.1381305E+002	-1.0687754E+001	2.246148661352345E+001	2.2867190E-002	2.3286953E-003	4.2392173E-001	1.4580427E-002	1.000000000000000E+000	11	1.2969239E-001	1.1395212E-003	5.872757829736737E-005	0.0000000E+000	-1.0007990E+002	8.6339172E-003	1.6294844E-003	8.7863384E-003	1.0687754E+001	-1.887179420025655E-006
1.5847686E+004	1.1206817E+002	2.3231710E+001	1.1445081E+002	-1.1711524E+001	2.292047442196053E+001	2.2870339E-002	2.2675602E-003	4.3228793E-001	1.7811388E-002	1.000000000000000E+000	11	1.3319182E-001	1.1637474E-003	5.843511147145828E-005	0.0000000E+000	-1.0005585E+002	8.5554840E-003	1.7735502E-003	8.7373788E-003	1.1711524E+001	-2.924668259090887E-007
1.4121879E+004	1.1233618E+002	2.5633406E+001	1.1522365E+002	-1.2853946E+001	2.338048889717902E+001	2.2863965E-002	2.2806081E-003	4.3966442E-001	2.1759590E-002	1.000000000000000E+000	11	1.3614042E-001	1.1815319E-003	5.862734551278602E-005	0.0000000E+000	-1.0008792E+002	8.4612872E-003	1.9307368E-003	8.6787743E-003	1.2853946E+001	1.922340413277414E-007
1.2590932E+004	1.1264665E+002	2.8312532E+001	1.1615019E+002	-1.4108444E+001	2.384049513234640E+001	2.2871645E-002	2.2664417E-003	4.4646102E-001	2.6527792E-002	1.000000000000000E+000	11	1.3857362E-001	1.1930554E-003	5.804641417726978E-005	0.0000000E+000	-1.0004784E+002	8.3498452E-003	2.0986444E-003	8.6095426E-003	1.4108444E+001	-5.809313355162468E-007
1.1217711E+004	1.1301191E+002	3.1338799E+001	1.1727665E+002	-1.5498975E+001	2.429949670078349E+001	2.2875410E-002	2.3713789E-003	4.5272404E-001	3.2327726E-002	1.000000000000000E+000	11	1.4056544E-001	1.1985799E-003	5.880136610242900E-005	0.0000000E+000	-1.0003982E+002	8.2167704E-003	2.2785536E-003	8.5268468E-003	1.5498975E+001	7.549519251592223E-007
1.0002229E+004	1.1341269E+002	3.4694077E+001	1.1860066E+002	-1.7009396E+001	2.489549360910314E+001	2.2868980E-002	2.3633630E-003	4.5863584E-001	3.9246812E-002	1.000000000000000E+000	11	1.2944344E-001	1.0914225E-003	5.822456545880737E-005	0.0000000E+000	-1.0009594E+002	8.0628283E-003	2.4665000E-003	8.4316563E-003	1.7009396E+001	-5.768006436216282E-007
8.9149297E+003	1.1390493E+002	3.8466831E+001	1.2022491E+002	-1.8660337E+001	2.537791248538997E+001	2.2874478E-002	2.3706325E-003	4.6410450E-001	4.7511600E-002	1.000000000000000E+000	11	1.3055140E-001	1.0858930E-003	5.884696318129944E-005	0.0000000E+000	-1.0006387E+002	7.8804959E-003	2.6613220E-003	8.3177434E-003	1.8660337E+001	6.223977224920679E-007
7.9439976E+003	1.1447643E+002	4.2685829E+001	1.2217583E+002	-2.0449417E+001	2.590398952370742E+001	2.2891177E-002	2.4332579E-003	4.6935052E-001	5.7292026E-002	1.000000000000000E+000	11	1.3138917E-001	1.0754105E-003	5.832023762923685E-005	0.0000000E+000	-1.0011999E+002	7.6691192E-003	2.8596516E-003	8.1849247E-003	2.0449417E+001	-5.267255520625914E-007
7.0822334E+003	1.1513734E+002	4.7359882E+001	1.2449725E+002	-2.2359024E+001	2.648086227109889E+001	2.2900647E-002	2.4744498E-003	4.7450334E-001	6.8665884E-002	1.000000000000000E+000	11	1.3199151E-001	1.0601962E-003	5.899013043781452E-005	0.0000000E+000	-1.0007990E+002	7.4284240E-003	3.0555620E-003	8.0323061E-003	2.2359024E+001	6.698928085776683E-007
6.3077344E+003	1.1590288E+002	5.2595299E+001	1.2727821E+002	-2.4407963E+001	2.711555715455324E+001	2.2909351E-002	2.3581432E-003	4.7973326E-001	8.1919178E-002	1.000000000000000E+000	11	1.3239256E-001	1.0401824E-003	5.934177771391761E-005	0.0000000E+000	-1.0006387E+002	7.1546128E-003	3.2466752E-003	7.8568049E-003	2.4407963E+001	3.516472761030950E-007
5.6210552E+003	1.1679073E+002	5.8396294E+001	1.3057642E+002	-2.6565416E+001	2.781628945449484E+001	2.2907412E-002	2.3857281E-003	4.8486072E-001	9.6974611E-002	1.000000000000000E+000	11	1.3262953E-001	1.0157235E-003	5.969282936641766E-005	0.0000000E+000	-1.0005585E+002	6.8498151E-003	3.4249623E-003	7.6583507E-003	2.6565416E+001	3.510516525000436E-007
5.0116035E+003	1.1780665E+002	6.4796638E+001	1.3445078E+002	-2.8811907E+001	2.857670770400728E+001	2.2928454E-002	2.5089278E-003	4.9010703E-001	1.1383329E-001	1.000000000000000E+000	11	1.3273479E-001	9.8723709E-004	5.955112171887433E-005	0.0000000E+000	-1.0009594E+002	6.5169320E-003	3.5844776E-003	7.4376664E-003	2.8811907E+001	-1.417076475433235E-007
4.4664292E+003	1.1899110E+002	7.1913383E+001	1.3903387E+002	-3.1147058E+001	2.933668358010618E+001	2.2916209E-002	2.4586059E-003	4.9550721E-001	1.3256478E-001	1.000000000000000E+000	11	1.3273479E-001	9.5469388E-004	5.930681331858311E-005	0.0000000E+000	-1.0011999E+002	6.1556404E-003	3.7202185E-003	7.1924916E-003	3.1147058E+001	-2.443084002912255E-007
3.9812742E+003	1.2036221E+002	7.9782509E+001	1.4440329E+002	-3.3538548E+001	3.009666369620390E+001	2.2906927E-002	2.3186286E-003	5.0106072E-001	1.5295073E-001	1.000000000000000E+000	11	1.3264409E-001	9.1856695E-004	5.921571902137819E-005	0.0000000E+000	-1.0007990E+002	5.7721282E-003	3.8260755E-003	6.9250502E-003	3.3538548E+001	-9.109429720491487E-008
3.5465955E+003	1.2194826E+002	8.8526474E+001	1.5069278E+002	-3.5977203E+001	3.085694322563359E+001	2.2908865E-002	2.3879646E-003	5.0691521E-001	1.7494307E-001	1.000000000000000E+000	11	1.3249241E-001	8.7922200E-004	5.905422861266157E-005	0.0000000E+000	-1.0007990E+002	5.3702029E-003	3.8984171E-003	6.6360179E-003	3.5977203E+001	-1.614904087166204E-007
3.1610112E+003	1.2376418E+002	9.8154388E+001	1.5796156E+002	-3.8417084E+001	3.161669315506879E+001	2.2903834E-002	2.2505959E-003	5.1296103E-001	1.9806191E-001	1.000000000000000E+000	11	1.3229409E-001	8.3750807E-004	5.896415274892934E-005	0.0000000E+000	-1.0007188E+002	4.9601193E-003	3.9337510E-003	6.3306540E-003	3.8417084E+001	-9.007586373223499E-008
2.8172952E+003	1.2584768E+002	1.0877036E+002	1.6633890E+002	-4.0836910E+001	3.237695172449457E+001	2.2910319E-002	2.3100523E-003	5.1937044E-001	2.2208063E-001	1.000000000000000E+000	11	1.3207090E-001	7.9398690E-004	5.923049718215286E-005	0.0000000E+000	-1.0007990E+002	4.5483885E-003	3.9311796E-003	6.0118227E-003	4.0836910E+001	2.663444332235202E-007
2.5108032E+003	1.2821620E+002	1.2048824E+002	1.7594548E+002	-4.3220226E+001	3.313670712059684E+001	2.2928305E-002	2.4209521E-003	5.2609330E-001	2.4671519E-001	1.000000000000000E+000	11	1.3184038E-001	7.4932521E-004	6.028759937945870E-005	0.0000000E+000	-1.0008792E+002	4.1417773E-003	3.8921400E-003	5.6835790E-003	4.3220226E+001	1.057102197305841E-006
2.2378516E+003	1.3093016E+002	1.3341624E+002	1.8692940E+002	-4.5538830E+001	3.389691945002414E+001	2.2911493E-002	2.3538515E-003	5.3306496E-001	2.7154535E-001	1.000000000000000E+000	11	1.3160233E-001	7.0402160E-004	6.113784649160355E-005	0.0000000E+000	-1.0006387E+002	3.7470069E-003	3.8181543E-003	5.3496133E-003	4.5538830E+001	8.502471121448474E-007
1.9956389E+003	1.3394702E+002	1.4755775E+002	1.9928647E+002	-4.7768089E+001	3.465667929946358E+001	2.2907672E-002	2.3514261E-003	5.4047567E-001	2.9630885E-001	1.000000000000000E+000	11	1.3137287E-001	6.5921620E-004	6.155522197266368E-005	0.0000000E+000	-1.0005585E+002	3.3726981E-003	3.7154071E-003	5.0179022E-003	4.7768089E+001	4.173754810601367E-007
1.7782927E+003	1.3741461E+002	1.6321352E+002	2.1335751E+002	-4.9904919E+001	3.541593853550148E+001	2.2906274E-002	2.3551492E-003	5.4835367E-001	3.2089069E-001	1.000000000000000E+000	11	1.3115990E-001	6.1474234E-004	6.246713285116777E-005	0.0000000E+000	-1.0008792E+002	3.0186796E-003	3.5854219E-003	4.6869689E-003	4.9904919E+001	9.119108785040850E-007
1.5855076E+003	1.4124815E+002	1.8038336E+002	2.2910521E+002	-5.1937481E+001	3.617571067827521E+001	2.2920551E-002	2.4479700E-003	5.5648738E-001	3.4496763E-001	1.000000000000000E+000	11	1.3096063E-001	5.7161786E-004	6.329684203442432E-005	0.0000000E+000	-1.0009594E+002	2.6909949E-003	3.4365803E-003	4.3648067E-003	5.1937481E+001	8.297091832565551E-007
1.4118373E+003	1.4559111E+002	1.9947926E+002	2.4695900E+002	-5.3875946E+001	3.693522028761799E+001	2.2912126E-002	2.3437792E-003	5.6511623E-001	3.6870882E-001	1.000000000000000E+000	11	1.3077843E-001	5.2955525E-004	6.338966322950080E-005	0.0000000E+000	-1.0006387E+002	2.3871798E-003	3.2707553E-003	4.0492550E-003	5.3875946E+001	9.282119507648295E-008
1.2587914E+003	1.5043416E+002	2.2027040E+002	2.6673862E+002	-5.5668793E+001	3.769496264375630E+001	2.2907803E-002	2.3148879E-003	5.7399780E-001	3.9142695E-001	1.000000000000000E+000	11	1.3062420E-001	4.8970862E-004	6.374210461884569E-005	0.0000000E+000	-1.0011197E+002	2.1143393E-003	3.0958818E-003	3.7489885E-003	5.5668793E+001	3.524413893448867E-007
1.1217948E+003	1.5580638E+002	2.4324902E+002	2.8886972E+002	-5.7359539E+001	3.845342254641582E+001	2.2916060E-002	2.3851562E-003	5.8325112E-001	4.1357452E-001	1.000000000000000E+000	11	1.3048735E-001	4.5171694E-004	6.438875704436861E-005	0.0000000E+000	-1.0011197E+002	1.8671586E-003	2.9150571E-003	3.4617682E-003	5.7359539E+001	6.466524255229156E-007
1.0003201E+003	1.6171524E+002	2.6833734E+002	3.1329977E+002	-5.8924458E+001	3.921268204919033E+001	2.2919619E-002	2.4444265E-003	5.9292537E-001	4.3495277E-001	1.000000000000000E+000	11	1.3036376E-001	4.1609912E-004	6.523816994985908E-005	0.0000000E+000	-1.0005585E+002	1.6475205E-003	2.7337635E-003	3.1918313E-003	5.8924458E+001	8.494129054904706E-007
8.9142657E+002	1.6827623E+002	2.9620813E+002	3.4067014E+002	-6.0399036E+001	4.022344111048733E+001	2.2907300E-002	2.0347745E-004	6.0275048E-001	4.5568359E-001	1.000000000000000E+000	12	1.3517854E-001	3.9680183E-004	6.606316074155782E-005	0.0000000E+000	-1.0009594E+002	1.4499554E-003	2.5522832E-003	2.9353909E-003	6.0399036E+001	8.249907916987436E-007
7.9423773E+002	1.7559021E+002	3.2687820E+002	3.7105429E+002	-6.1756500E+001	4.098295741324546E+001	2.2903983E-002	1.9130242E-004	6.1303270E-001	4.7575206E-001	1.000000000000000E+000	12	1.3423516E-001	3.6176690E-004	6.600825108511263E-005	0.0000000E+000	-1.0006387E+002	1.2753382E-003	2.3741657E-003	2.6950233E-003	6.1756500E+001	-5.490965644519075E-008
7.0750946E+002	1.8363548E+002	3.6071899E+002	4.0477176E+002	-6.3020180E+001	4.174544451609836E+001	2.2910058E-002	1.9586936E-004	6.2361830E-001	4.9526367E-001	1.000000000000000E+000	12	1.3344233E-001	3.2967303E-004	6.613915965078115E-005	0.0000000E+000	-1.0007188E+002	1.1208209E-003	2.2016515E-003	2.4705280E-003	6.3020180E+001	1.309085656685152E-007
6.3100964E+002	1.9242361E+002	3.9760117E+002	4.4171658E+002	-6.4174812E+001	4.250344311210210E+001	2.2905342E-002	1.8030099E-004	6.3436103E-001	5.1397783E-001	1.000000000000000E+000	12	1.3278925E-001	3.0062094E-004	6.625673492333348E-005	0.0000000E+000	-1.0008792E+002	9.8621345E-004	2.0377939E-003	2.2638950E-003	6.4174812E+001	1.175752725523312E-007
5.6233929E+002	2.0218256E+002	4.3849896E+002	4.8286554E+002	-6.5246574E+001	4.325989992139512E+001	2.2906424E-002	1.7287963E-004	6.4543593E-001	5.3227717E-001	1.000000000000000E+000	12	1.3224682E-001	2.7387918E-004	6.654469952923602E-005	0.0000000E+000	-1.0006387E+002	8.6714415E-004	1.8806853E-003	2.0709699E-003	6.5246574E+001	2.879646059025380E-007
5.0144415E+002	2.1286476E+002	4.8330179E+002	5.2810229E+002	-6.6229454E+001	4.401719819733989E+001	2.2905137E-002	1.7919675E-004	6.5671837E-001	5.5002177E-001	1.000000000000000E+000	12	1.3179553E-001	2.4956439E-004	6.645675454019834E-005	0.0000000E+000	-1.0006387E+002	7.6325150E-004	1.7329351E-003	1.8935725E-003	6.6229454E+001	-8.794498903767864E-008
4.4685895E+002	2.2463310E+002	5.3299707E+002	5.7839941E+002	-6.7146873E+001	4.477391932666069E+001	2.2901075E-002	1.7852645E-004	6.6822833E-001	5.6743854E-001	1.000000000000000E+000	12	1.3142127E-001	2.2721542E-004	6.666970067800139E-005	0.0000000E+000	-1.0003982E+002	6.7145680E-004	1.5931957E-003	1.7289091E-003	6.7146873E+001	2.129461378030500E-007
3.9808920E+002	2.3772414E+002	5.8791156E+002	6.3415515E+002	-6.7983879E+001	4.553671802956524E+001	2.2902770E-002	1.8124800E-004	6.8002945E-001	5.8446789E-001	1.000000000000000E+000	12	1.3111785E-001	2.0675988E-004	6.664848385565144E-005	0.0000000E+000	-1.0005585E+002	5.9112895E-004	1.4619110E-003	1.5769012E-003	6.7983879E+001	-2.121682234994249E-008
3.5465955E+002	2.5203529E+002	6.4845044E+002	6.9570813E+002	-6.8760231E+001	4.629692403899389E+001	2.2900647E-002	1.6717179E-004	6.9204080E-001	6.0121679E-001	1.000000000000000E+000	12	1.3085952E-001	1.8809544E-004	6.680963629794779E-005	0.0000000E+000	-1.0005585E+002	5.2072358E-004	1.3397465E-003	1.4373844E-003	6.8760231E+001	1.611524422963492E-007
3.1631586E+002	2.6771179E+002	7.1458618E+002	7.6308783E+002	-6.9462097E+001	4.705393916828325E+001	2.2896023E-002	1.7874948E-004	7.0411652E-001	6.1745417E-001	1.000000000000000E+000	12	1.3065416E-001	1.7121772E-004	6.669458320155132E-005	0.0000000E+000	-1.0004784E+002	4.5974649E-004	1.2271724E-003	1.3104652E-003	6.9462097E+001	-1.150530963964691E-007
2.8189429E+002	2.8507495E+002	7.8810968E+002	8.3808386E+002	-7.0113937E+001	4.780939288411173E+001	2.2900179E-002	1.7093746E-004	7.1638614E-001	6.3349843E-001	1.000000000000000E+000	12	1.3049060E-001	1.5570113E-004	6.683568483345880E-005	0.0000000E+000	-1.0007990E+002	4.0586726E-004	1.1220487E-003	1.1931980E-003	7.0113937E+001	1.411016319074771E-007
2.5104436E+002	3.0436472E+002	8.6971967E+002	9.2143921E+002	-7.0712135E+001	4.856593670675647E+001	2.2902956E-002	1.7936356E-004	7.2893757E-001	6.4940488E-001	1.000000000000000E+000	12	1.3034889E-001	1.4146228E-004	6.678478569158890E-005	0.0000000E+000	-1.0006387E+002	3.5847671E-004	1.0243442E-003	1.0852588E-003	7.0712135E+001	-5.089914186990111E-008
2.2392513E+002	3.2536780E+002	9.5859686E+002	1.0123103E+003	-7.1251717E+001	4.932872354301071E+001	2.2903666E-002	1.8846155E-004	7.4144906E-001	6.6485357E-001	1.000000000000000E+000	12	1.3024047E-001	1.2865667E-004	6.673892839453928E-005	0.0000000E+000	-1.0007188E+002	3.1750256E-004	9.3542441E-004	9.8783942E-004	7.1251717E+001	-4.585729704962454E-008
1.9955299E+002	3.4868530E+002	1.0570797E+003	1.1131033E+003	-7.1744492E+001	5.009018864578684E+001	2.2898484E-002	1.9172374E-004	7.5449109E-001	6.8045384E-001	1.000000000000000E+000	12	1.3014342E-001	1.1691945E-004	6.663750958607125E-005	0.0000000E+000	-1.0008792E+002	2.8142502E-004	8.5317245E-004	8.9838926E-004	7.1744492E+001	-1.014188084680264E-007
1.7778128E+002	3.7467548E+002	1.1664421E+003	1.2251404E+003	-7.2192345E+001	5.085823766895919E+001	2.2908641E-002	1.8672706E-004	7.6748675E-001	6.9570577E-001	1.000000000000000E+000	12	1.3007253E-001	1.0616949E-004	6.664571155358217E-005	0.0000000E+000	-1.0006387E+002	2.4962242E-004	7.7712606E-004	8.1623299E-004	7.2192345E+001	8.201967510916108E-009
1.5842838E+002	4.0310101E+002	1.2865968E+003	1.3482662E+003	-7.2603813E+001	5.162473095873429E+001	2.2914214E-002	1.9347609E-004	7.8080881E-001	7.1101427E-001	1.000000000000000E+000	12	1.3000694E-001	9.6425269E-005	6.671035752761479E-005	0.0000000E+000	-1.0008792E+002	2.2174943E-004	7.0776837E-004	7.4169325E-004	7.2603813E+001	6.464597403262463E-008
1.4131134E+002	4.3451825E+002	1.4181538E+003	1.4832284E+003	-7.2965088E+001	5.237790286116069E+001	2.2904839E-002	1.9837942E-004	7.9418159E-001	7.2602302E-001	1.000000000000000E+000	12	1.2995930E-001	8.7619213E-005	6.677055762890895E-005	0.0000000E+000	-1.0011999E+002	1.9751130E-004	6.4462522E-004	6.7420502E-004	7.2965088E+001	6.020010129415942E-008
1.2584569E+002	4.6984595E+002	1.5652915E+003	1.6342866E+003	-7.3292076E+001	5.313340044367942E+001	2.2914121E-002	1.7891465E-004	8.0795383E-001	7.4117464E-001	1.000000000000000E+000	12	1.2991974E-001	7.9496298E-005	6.678509960754632E-005	0.0000000E+000	-1.0010395E+002	1.7591345E-004	5.8605557E-004	6.1188778E-004	7.3292076E+001	1.454197863737456E-008
1.1218996E+002	5.0839331E+002	1.7262760E+003	1.7995812E+003	-7.3590149E+001	5.387883525245707E+001	2.2901243E-002	1.7848532E-004	8.2178068E-001	7.5619447E-001	1.000000000000000E+000	12	1.2988961E-001	7.2177689E-005	6.677247457414221E-005	0.0000000E+000	-1.0009594E+002	1.5698452E-004	5.3304929E-004	5.5568485E-004	7.3590149E+001	-1.262503340411535E-008
1.0003201E+002	5.5157648E+002	1.9034462E+003	1.9817527E+003	-7.3839584E+001	5.463867131522420E+001	2.2908362E-002	1.9129389E-004	8.3587348E-001	7.7112150E-001	1.000000000000000E+000	12	1.2986024E-001	6.5527973E-005	6.677228310680665E-005	0.0000000E+000	-1.0006387E+002	1.4044518E-004	4.8466504E-004	5.0460384E-004	7.3839584E+001	-1.914673355572685E-010
8.9115974E+001	5.9874786E+002	2.1005508E+003	2.1842190E+003	-7.4090157E+001	5.540573727164883E+001	2.2913171E-002	1.9580522E-004	8.5022008E-001	7.8633100E-001	1.000000000000000E+000	12	1.2983990E-001	5.9444541E-005	6.681212300211862E-005	0.0000000E+000	-1.0007990E+002	1.2550228E-004	4.4029206E-004	4.5782956E-004	7.4090157E+001	3.983989531196775E-008
7.9415527E+001	6.5205505E+002	2.3167158E+003	2.4067297E+003	-7.4280388E+001	5.616921544118668E+001	2.2904988E-002	1.7445773E-004	8.6505145E-001	8.0155408E-001	1.000000000000000E+000	12	1.2982364E-001	5.3941927E-005	6.682985660805874E-005	0.0000000E+000	-1.0009594E+002	1.1257182E-004	3.9996143E-004	4.1550156E-004	7.4280388E+001	1.773360594012493E-008
7.0838745E+001	7.1085828E+002	2.5545032E+003	2.6515667E+003	-7.4449364E+001	5.717037234207965E+001	2.2910412E-002	1.6867229E-005	8.7951416E-001	8.1630158E-001	1.000000000000000E+000	13	1.3035069E-001	4.9159877E-005	6.684019601277982E-005	0.0000000E+000	-1.0009594E+002	1.0110623E-004	3.6333007E-004	3.7713553E-004	7.4449364E+001	1.033940472107908E-008
6.3082302E+001	7.7690808E+002	2.8194839E+003	2.9245642E+003	-7.4594467E+001	5.795082701920182E+001	2.2914829E-002	2.2553300E-005	8.9483505E-001	8.3168697E-001	1.000000000000000E+000	13	1.3023564E-001	4.4531640E-005	6.686862745202253E-005	0.0000000E+000	-1.0007990E+002	9.0833782E-005	3.2964561E-004	3.4193130E-004	7.4594467E+001	2.843143924271033E-008
5.6241817E+001	8.4921735E+002	3.1084644E+003	3.2223782E+003	-7.4719933E+001	5.869432404116378E+001	2.2915743E-002	1.5409780E-005	9.1036367E-001	8.4713703E-001	1.000000000000000E+000	13	1.3014185E-001	4.0386898E-005	6.685597510536536E-005	0.0000000E+000	-1.0007990E+002	8.1783532E-005	2.9935938E-004	3.1032981E-004	7.4719933E+001	-1.265234665717436E-008
5.0144413E+001	9.3110553E+002	3.4258569E+003	3.5501343E+003	-7.4795006E+001	5.945117255710647E+001	2.2910561E-002	2.3854034E-005	9.2646360E-001	8.6273462E-001	1.000000000000000E+000	13	1.3007028E-001	3.6638132E-005	6.684363800047626E-005	0.0000000E+000	-1.0010395E+002	7.3877003E-005	2.7181889E-004	2.8167947E-004	7.4795006E+001	-1.233710488910062E-008
4.4671219E+001	1.0204785E+003	3.7789978E+003	3.9143584E+003	-7.4888321E+001	6.021520171340671E+001	2.2911847E-002	2.0503066E-005	9.4279158E-001	8.7871450E-001	1.000000000000000E+000	13	1.3000998E-001	3.3213611E-005	6.686311550593099E-005	0.0000000E+000	-1.0009594E+002	6.6601286E-005	2.4663543E-004	2.5546970E-004	7.4888321E+001	1.947750545473346E-008
3.9808922E+001	1.1202939E+003	4.1662632E+003	4.3142563E+003	-7.4949364E+001	6.097772017630632E+001	2.2914195E-002	1.5130023E-005	9.5960611E-001	8.9490002E-001	1.000000000000000E+000	13	1.2995581E-001	3.0122414E-005	6.684084887563019E-005	0.0000000E+000	-1.0008792E+002	6.0189424E-005	2.2383851E-004	2.3178966E-004	7.4949364E+001	-2.226663030079924E-008
3.5465305E+001	1.2320497E+003	4.5929570E+003	4.7553340E+003	-7.4984047E+001	6.172814991857740E+001	2.2913134E-002	2.1278207E-005	9.7706634E-001	9.1147923E-001	1.000000000000000E+000	13	1.2991673E-001	2.7320211E-005	6.689060612395042E-005	0.0000000E+000	-1.0008792E+002	5.4483658E-005	2.0310955E-004	2.1029018E-004	7.4984047E+001	4.975724832022744E-008
3.1629551E+001	1.3559010E+003	5.0588535E+003	5.2374102E+003	-7.4995926E+001	6.245244800628279E+001	2.2917364E-002	1.9142230E-005	9.9466079E-001	9.2799586E-001	1.000000000000000E+000	13	1.2988934E-001	2.4800300E-005	6.688530278342317E-005	0.0000000E+000	-1.0008792E+002	4.9430488E-005	1.8442463E-004	1.9093406E-004	7.4995926E+001	-5.303340527254737E-009
2.8170074E+001	1.4926367E+003	5.5772168E+003	5.7735010E+003	-7.5017006E+001	6.325775921792956E+001	2.2912724E-002	2.0923870E-005	1.0130121E+000	9.4530326E-001	1.000000000000000E+000	13	1.2985462E-001	2.2491486E-005	6.682885702767918E-005	0.0000000E+000	-1.0004784E+002	4.4779128E-005	1.6731661E-004	1.7320513E-004	7.5017006E+001	-5.644575574398976E-008
2.5104435E+001	1.6464902E+003	6.1440024E+003	6.3607935E+003	-7.4998177E+001	6.401393597383867E+001	2.2916339E-002	1.8996800E-005	1.0318542E+000	9.6271670E-001	1.000000000000000E+000	13	1.2983716E-001	2.0412101E-005	6.682245031404737E-005	0.0000000E+000	-1.0007990E+002	4.0694573E-005	1.5185488E-004	1.5721309E-004	7.4998177E+001	-6.406713631807543E-009
2.2385387E+001	1.8143561E+003	6.7644849E+003	7.0035806E+003	-7.4985634E+001	6.470043437977438E+001	2.2911102E-002	1.5023418E-005	1.0510437E+000	9.8050541E-001	1.000000000000000E+000	13	1.2981871E-001	1.8536048E-005	6.688575985023474E-005	0.0000000E+000	-1.0006387E+002	3.6989826E-005	1.3790958E-004	1.4278411E-004	7.4985634E+001	6.330953618737445E-008
1.9955299E+001	2.0052466E+003	7.4482783E+003	7.7134858E+003	-7.4931938E+001	6.546221222929307E+001	2.2912426E-002	2.0232335E-005	1.0707942E+000	9.9842721E-001	1.000000000000000E+000	13	1.2980980E-001	1.6828941E-005	6.688608105570731E-005	0.0000000E+000	-1.0008792E+002	3.3702829E-005	1.2518564E-004	1.2964307E-004	7.4931938E+001	3.212054725660034E-010
1.7796129E+001	2.2101064E+003	8.1968604E+003	8.4895869E+003	-7.4910271E+001	6.630650933602010E+001	2.2912528E-002	2.0227651E-005	1.0910560E+000	1.0171125E+000	1.000000000000000E+000	13	1.2979376E-001	1.5288584E-005	6.689912755424939E-005	0.0000000E+000	-1.0010395E+002	3.0664793E-005	1.1372983E-004	1.1779136E-004	7.4910271E+001	1.304649854207867E-008
1.5857576E+001	2.4401304E+003	9.0233936E+003	9.3475059E+003	-7.4867851E+001	6.702890851703705E+001	2.2915985E-002	1.8018227E-005	1.1122782E+000	1.0364819E+000	1.000000000000000E+000	13	1.2978256E-001	1.3884191E-005	6.685878175070118E-005	0.0000000E+000	-1.0007188E+002	2.7926828E-005	1.0327100E-004	1.0698041E-004	7.4867851E+001	-4.034580354821040E-008
1.4118974E+001	2.6976785E+003	9.9386416E+003	1.0298256E+004	-7.4813911E+001	6.783125722178374E+001	2.2916861E-002	1.8018152E-005	1.1342008E+000	1.0563715E+000	1.000000000000000E+000	13	1.2977767E-001	1.2601908E-005	6.691910556721026E-005	0.0000000E+000	-1.0007990E+002	2.5436819E-005	9.3712973E-005	9.7103824E-005	7.4813911E+001	6.032381650908467E-008
1.2600808E+001	2.9777585E+003	1.0929896E+004	1.1328269E+004	-7.4760117E+001	6.872185433079721E+001	2.2915229E-002	1.9451283E-005	1.1555952E+000	1.0757483E+000	1.000000000000000E+000	13	1.2977476E-001	1.1455834E-005	6.690718943410340E-005	0.0000000E+000	-1.0005585E+002	2.3203975E-005	8.5170446E-005	8.8274741E-005	7.4760117E+001	-1.191613310685979E-008
1.1224856E+001	3.2926301E+003	1.2030444E+004	1.2472891E+004	-7.4693474E+001	6.940589580326923E+001	2.2913618E-002	1.6776898E-005	1.1785762E+000	1.0964447E+000	1.000000000000000E+000	13	1.2976483E-001	1.0403749E-005	6.692292736662987E-005	0.0000000E+000	-1.0005585E+002	2.1164535E-005	7.7329896E-005	8.0173879E-005	7.4693474E+001	1.573793252646451E-008
1.0003201E+001	3.6437634E+003	1.3235984E+004	1.3728376E+004	-7.4608185E+001	7.016669271943101E+001	2.2913041E-002	9.7899674E-006	1.2020565E+000	1.1173753E+000	1.000000000000000E+000	13	1.2976778E-001	9.4525221E-006	6.685429730310655E-005	0.0000000E+000	-1.0005585E+002	1.9333562E-005	7.0229238E-005	7.2841831E-005	7.4608185E+001	-6.863006352331386E-008
8.9183798E+000	4.0213381E+003	1.4558460E+004	1.5103640E+004	-7.4558784E+001	7.101004785278928E+001	2.2913022E-002	2.1527385E-005	1.2257975E+000	1.1389021E+000	1.000000000000000E+000	13	1.2976134E-001	8.5913953E-006	6.694233342973449E-005	0.0000000E+000	-1.0010395E+002	1.7628172E-005	6.3819331E-005	6.6209206E-005	7.4558784E+001	8.803612662793751E-008
7.9395342E+000	4.4468926E+003	1.6026275E+004	1.6631787E+004	-7.4491989E+001	7.194767875068646E+001	2.2912938E-002	1.8215602E-005	1.2508134E+000	1.1613948E+000	1.000000000000000E+000	13	1.2975600E-001	7.8016874E-006	6.686678664898217E-005	0.0000000E+000	-1.0007188E+002	1.6076030E-005	5.7936832E-005	6.0125829E-005	7.4491989E+001	-7.554678075232305E-008
7.0765405E+000	4.9265815E+003	1.7624525E+004	1.8300139E+004	-7.4382736E+001	7.250603013718501E+001	2.2904355E-002	1.3481868E-005	1.2760912E+000	1.1836078E+000	1.000000000000000E+000	13	1.2975302E-001	7.0902756E-006	6.687283177174646E-005	0.0000000E+000	-1.0001577E+002	1.4710819E-005	5.2627005E-005	5.4644395E-005	7.4382736E+001	6.045122764289281E-009
6.3105822E+000	5.5480713E+003	1.9451859E+004	2.0227604E+004	-7.4080757E+001	7.312618016664055E+001	2.2888755E-002	5.2510921E-005	1.2965509E+000	1.1990104E+000	1.000000000000000E+000	13	1.2974375E-001	6.4141932E-006	6.689966515413794E-005	0.0000000E+000	-1.0003180E+002	1.3559797E-005	4.7541431E-005	4.9437393E-005	7.4080757E+001	2.683338239148727E-008
5.6205034E+000	6.0549043E+003	2.1303791E+004	2.2147537E+004	-7.4133934E+001	7.381264753260621E+001	2.2913581E-002	2.5621797E-005	1.3291930E+000	1.2298466E+000	1.000000000000000E+000	13	1.2975545E-001	5.8586852E-006	6.694685209479374E-005	0.0000000E+000	-1.0004784E+002	1.2344017E-005	4.3431621E-005	4.5151748E-005	7.4133934E+001	4.718694065579388E-008
5.0144415E+000	6.6527217E+003	2.3437896E+004	2.4363779E+004	-7.4153694E+001	7.457016284854035E+001	2.2921298E-002	1.2453042E-005	1.3541880E+000	1.2532188E+000	1.000000000000000E+000	13	1.2975654E-001	5.3257968E-006	6.698165576171479E-005	0.0000000E+000	-1.0007188E+002	1.1207531E-005	3.9484745E-005	4.1044535E-005	7.4153694E+001	3.480366692105053E-008
4.4693937E+000	7.3405571E+003	2.5858080E+004	2.6879809E+004	-7.4151886E+001	7.568550655481522E+001	2.2918090E-002	-9.2259634E-006	1.3771310E+000	1.2744284E+000	1.000000000000000E+000	14	1.2979275E-001	4.8286338E-006	6.695465718466747E-005	0.0000000E+000	-1.0006387E+002	1.0159602E-005	3.5788536E-005	3.7202644E-005	7.4151886E+001	-2.699857704732049E-008
3.9778514E+000	8.3110703E+003	2.8345568E+004	2.9538875E+004	-7.3658585E+001	7.662217033267370E+001	2.2924410E-002	-1.8643037E-005	1.4115180E+000	1.2997769E+000	1.000000000000000E+000	14	1.2977955E-001	4.3935170E-006	6.689207409053172E-005	0.0000000E+000	-1.0008792E+002	9.5250889E-006	3.2486078E-005	3.3853692E-005	7.3658585E+001	-6.258309413574711E-008
3.5511365E+000	9.0323193E+003	3.1133307E+004	3.2417057E+004	-7.3821625E+001	7.766341070210910E+001	2.2926580E-002	8.6696009E-006	1.4395525E+000	1.3277944E+000	1.000000000000000E+000	14	1.2977305E-001	4.0032337E-006	6.686306123117458E-005	0.0000000E+000	-1.0008792E+002	8.5951251E-006	2.9626344E-005	3.0847958E-005	7.3821625E+001	-2.901285935714320E-008
3.1603966E+000	1.0034957E+004	3.4119074E+004	3.5564191E+004	-7.3610558E+001	7.882620323737501E+001	2.2926515E-002	4.2029783E-006	1.4759829E+000	1.3584696E+000	1.000000000000000E+000	14	1.2976849E-001	3.6488525E-006	6.695137571450525E-005	0.0000000E+000	-1.0004784E+002	7.9339552E-006	2.6975616E-005	2.8118171E-005	7.3610558E+001	8.831448333066958E-008
2.8183618E+000	1.1159946E+004	3.7517363E+004	3.9142012E+004	-7.3434319E+001	8.012167999226222E+001	2.2916041E-002	-2.5195975E-006	1.5051892E+000	1.3828319E+000	1.000000000000000E+000	14	1.2976818E-001	3.3153171E-006	6.690254762998383E-005	0.0000000E+000	-1.0004784E+002	7.2840994E-006	2.4487590E-005	2.5547997E-005	7.3434319E+001	-4.882808452141493E-008
2.5136740E+000	1.2254221E+004	4.1200359E+004	4.2984133E+004	-7.3435944E+001	8.156574168751831E+001	2.2919966E-002	6.8392810E-006	1.5367746E+000	1.4118737E+000	1.000000000000000E+000	14	1.2976414E-001	3.0188846E-006	6.687347424893005E-005	0.0000000E+000	-1.0007188E+002	6.6323801E-006	2.2298962E-005	2.3264398E-005	7.3435944E+001	-2.907338105377914E-008
2.2398219E+000	1.3563018E+004	4.5116617E+004	4.7111195E+004	-7.3268105E+001	8.318036581747583E+001	2.2918720E-002	3.6202587E-006	1.5749621E+000	1.4444247E+000	1.000000000000000E+000	14	1.2975970E-001	2.7543283E-006	6.696620556224014E-005	0.0000000E+000	-1.0008792E+002	6.1109395E-006	2.0327703E-005	2.1226377E-005	7.3268105E+001	9.273131331009237E-008
1.9970604E+000	1.5065605E+004	4.9488180E+004	5.1730574E+004	-7.3068268E+001	8.498372150319483E+001	2.2922084E-002	-4.1617605E-007	1.6103765E+000	1.4737906E+000	1.000000000000000E+000	14	1.2976150E-001	2.5084103E-006	6.686507963370908E-005	0.0000000E+000	-1.0011197E+002	5.6297858E-006	1.8492980E-005	1.9330928E-005	7.3068268E+001	-1.011259285310623E-007
1.7796129E+000	1.6679270E+004	5.4347063E+004	5.6848934E+004	-7.2938599E+001	8.700185237237019E+001	2.2926044E-002	6.5070453E-006	1.6455781E+000	1.5039244E+000	1.000000000000000E+000	14	1.2975781E-001	2.2825020E-006	6.693318710406372E-005	0.0000000E+000	-1.0007990E+002	5.1609827E-006	1.6816337E-005	1.7590479E-005	7.2938599E+001	6.810747035463705E-008
1.5846854E+000	1.8443748E+004	5.9685105E+004	6.2469863E+004	-7.2827927E+001	8.926100013300311E+001	2.2927757E-002	5.7374626E-007	1.6827171E+000	1.5360379E+000	1.000000000000000E+000	14	1.2975703E-001	2.0771140E-006	6.692190873962293E-005	0.0000000E+000	-1.0008792E+002	4.7261569E-006	1.5294132E-005	1.6007718E-005	7.2827927E+001	-1.127836444078840E-008
1.4122382E+000	2.0378492E+004	6.5391816E+004	6.8493594E+004	-7.2691048E+001	9.179016329310252E+001	2.2931447E-002	2.3036989E-006	1.7234106E+000	1.5708534E+000	1.000000000000000E+000	14	1.2975322E-001	1.8943848E-006	6.688146448230488E-005	0.0000000E+000	-1.0004784E+002	4.3438231E-006	1.3938739E-005	1.4599906E-005	7.2691048E+001	-4.044425731804604E-008
1.2596743E+000	2.2508656E+004	7.1620297E+004	7.5074008E+004	-7.2553230E+001	9.461898633415694E+001	2.2932881E-002	2.7503381E-006	1.7641102E+000	1.6055312E+000	1.000000000000000E+000	14	1.2975253E-001	1.7283282E-006	6.696760553800797E-005	0.0000000E+000	-1.0008792E+002	3.9936540E-006	1.2707406E-005	1.3320189E-005	7.2553230E+001	8.614105570308676E-008
1.1224856E+000	2.4886287E+004	7.8455078E+004	8.2307516E+004	-7.2400749E+001	9.778601016459288E+001	2.2932980E-002	2.5875781E-006	1.8072501E+000	1.6420312E+000	1.000000000000000E+000	14	1.2975214E-001	1.5764314E-006	6.685894432783647E-005	0.0000000E+000	-1.0003982E+002	3.6735094E-006	1.1580894E-005	1.2149559E-005	7.2400749E+001	-1.086612101715013E-007
1.0000638E+000	2.7559480E+004	8.5909203E+004	9.0221484E+004	-7.2213875E+001	1.013352335064847E+002	2.2931932E-002	2.7883716E-006	1.8524766E+000	1.6796244E+000	1.000000000000000E+000	14	1.2975137E-001	1.4381427E-006	6.698571443897648E-005	0.0000000E+000	-1.0006387E+002	3.3857204E-006	1.0554065E-005	1.1083835E-005	7.2213875E+001	1.267701111400110E-007