EC-Lab ASCII FILE
Nb header lines : 75                          

Potentio Electrochemical Impedance Spectroscopy

Run on channel : 2 (SN 20919)
User : 
CE vs. WE compliance from -10 V to 10 V
Electrode connection : standard
Ewe ctrl range : min = -10.00 V, max = 10.00 V
Safety Limits :
	Do not start on E overload
Acquisition started on : 01/24/2020 09:55:50
Technique started on : 01/24/2020 09:55:51
Saved on :
	File : DE_40_14_60.mpr
	Directory : P:\Chemistry\Data\VMP3\Kyler\DOE\DE_40\2ND 60C\
	Host : 10.0.4.99
Device : VMP3 (SN 0183)
Address : USB
EC-Lab for windows v11.33 (software)
Internet server v11.32 (firmware)
Command interpretor v11.33 (firmware)
Electrode material : 
Initial state : 
Electrolyte : 
Comments : 
Electrode surface area : 0.001 cm²
Characteristic mass : 0.001 g
Equivalent Weight : 0.000 g/eq.
Density : 0.000 g/cm3
Record Analogic IN 1
Cycle Definition : Charge/Discharge alternance
External device configuration :
   device type : Thermostat
   device name : Other
   Analog OUT : 
      mode : E/V
      unit : T/°C
      max : 400.000 at 5.000 V
      min : -100.000 at 0.000 V
      current : 0.000
   Analog IN 1 : 
      unit : T/°C
      max : 400.000 at 5.000 V
      min : -100.000 at 0.000 V
Mode                Single sine         
E (V)               0.0000              
vs.                 Eoc                 
tE (h:m:s)          0:00:0.0000         
record              0                   
dI                  1.000               
unit dI             mA                  
dt (s)              0.000               
fi                  1.000               
unit fi             MHz                 
ff                  1.000               
unit ff             Hz                  
Nd                  20                  
Points              per decade          
spacing             Logarithmic         
Va (mV)             128.0               
pw                  0.50                
Na                  3                   
corr                0                   
E range min (V)     -10.000             
E range max (V)     10.000              
I Range             Auto                
Bandwidth           5                   
nc cycles           0                   
goto Ns'            0                   
nr cycles           0                   
inc. cycle          1                   

freq/Hz	Re(Z)/Ohm	-Im(Z)/Ohm	|Z|/Ohm	Phase(Z)/deg	time/s	<Ewe>/V	<I>/mA	Cs/µF	Cp/µF	cycle number	I Range	|Ewe|/V	|I|/A	(Q-Qo)/mA.h	Analog OUT/V	Analog IN 1/V	Re(Y)/Ohm-1	Im(Y)/Ohm-1	|Y|/Ohm-1	Phase(Y)/deg	dq/mA.h	
1.0000186E+006	5.5917427E+001	1.9448666E+001	5.9203117E+001	-1.9178209E+001	1.646470024861628E+000	4.0070852E-003	1.5113873E-003	8.1831822E-003	8.8310579E-004	1.000000000000000E+000	11	9.9047844E-004	1.6730173E-005	3.163213435483547E-007	0.0000000E+000	-1.0010986E+002	1.5953574E-002	5.5488204E-003	1.6891003E-002	1.9178209E+001	3.163213435483547E-007
8.9124669E+005	5.6994526E+001	1.6911291E+001	5.9450550E+001	-1.6526560E+001	2.242471786477836E+000	4.4324901E-003	1.4545186E-003	1.0559551E-002	8.5445109E-004	1.000000000000000E+000	11	1.6909979E-003	2.8443772E-005	4.986109008148358E-007	0.0000000E+000	-1.0011788E+002	1.6125806E-002	4.7848136E-003	1.6820703E-002	1.6526560E+001	1.822895572664811E-007
7.9433269E+005	5.8812904E+001	1.5031452E+001	6.0703396E+001	-1.4336796E+001	2.838486054766690E+000	4.7710771E-003	1.4576785E-003	1.3329590E-002	8.1732101E-004	1.000000000000000E+000	11	2.7395496E-003	4.5130088E-005	8.274670103591133E-007	0.0000000E+000	-1.0014193E+002	1.5960505E-002	4.0791999E-003	1.6473543E-002	1.4336796E+001	3.288561095442775E-007
7.0794981E+005	6.0790607E+001	1.3663959E+001	6.2307316E+001	-1.2667888E+001	3.435488509800052E+000	5.0752866E-003	1.4652993E-003	1.6452849E-002	7.9125434E-004	1.000000000000000E+000	11	4.2283516E-003	6.7862842E-005	1.005052036483802E-006	0.0000000E+000	-1.0009383E+002	1.5658798E-002	3.5196417E-003	1.6049480E-002	1.2667888E+001	1.775850261246887E-007
6.3095681E+005	6.2809952E+001	1.2656490E+001	6.4072433E+001	-1.1392797E+001	4.030474084749585E+000	5.3219842E-003	1.4450423E-003	1.9929996E-002	7.7766285E-004	1.000000000000000E+000	11	6.2275114E-003	9.7194861E-005	1.168792229690654E-006	0.0000000E+000	-1.0004572E+002	1.5299809E-002	3.0829809E-003	1.5607336E-002	1.1392797E+001	1.637401932068518E-007
5.6234225E+005	6.4496574E+001	1.1860471E+001	6.5578033E+001	-1.0419881E+001	4.625473179650726E+000	5.5253934E-003	1.4898332E-003	2.3862585E-002	7.8055693E-004	1.000000000000000E+000	11	8.7506576E-003	1.3343885E-004	1.470108507367614E-006	0.0000000E+000	-1.0004572E+002	1.4997534E-002	2.7579421E-003	1.5249008E-002	1.0419881E+001	3.013162776769604E-007
5.0120619E+005	6.5958275E+001	1.1043350E+001	6.6876373E+001	-9.5048342E+000	5.220478754577925E+000	5.6813573E-003	1.4532222E-003	2.8754305E-002	7.8407780E-004	1.000000000000000E+000	11	1.1825020E-002	1.7681910E-004	2.179331637533323E-006	0.0000000E+000	-1.0010986E+002	1.4747685E-002	2.4691953E-003	1.4952964E-002	9.5048342E+000	7.092231301657090E-007
4.4668572E+005	6.7180260E+001	1.0343264E+001	6.7971832E+001	-8.7526932E+000	5.815475556213642E+000	5.7941452E-003	1.4454173E-003	3.4447718E-002	7.9765974E-004	1.000000000000000E+000	11	1.5470884E-002	2.2760728E-004	1.931822183996297E-006	0.0000000E+000	-1.0012590E+002	1.4540645E-002	2.2387190E-003	1.4711976E-002	8.7526932E+000	-2.475094535370266E-007
3.9810347E+005	6.8158768E+001	9.6647768E+000	6.8840584E+001	-8.0706224E+000	6.411483691161266E+000	5.8448529E-003	1.5017309E-003	4.1364938E-002	8.1531779E-004	1.000000000000000E+000	11	1.9707806E-002	2.8628181E-004	2.206637310938580E-006	0.0000000E+000	-1.0006977E+002	1.4382443E-002	2.0394016E-003	1.4526315E-002	8.0706224E+000	2.748151269422830E-007
3.5480997E+005	6.8987610E+001	8.9709530E+000	6.9568443E+001	-7.4090056E+000	7.006493799417512E+000	5.8534290E-003	1.5424346E-003	5.0001811E-002	8.3145418E-004	1.000000000000000E+000	11	2.4604572E-002	3.5367432E-004	2.438602053502109E-006	0.0000000E+000	-1.0009383E+002	1.4254320E-002	1.8535913E-003	1.4374333E-002	7.4090056E+000	2.319647425635292E-007
3.1622997E+005	6.9651398E+001	8.3136845E+000	7.0145813E+001	-6.8066974E+000	7.601495667680865E+000	5.8405655E-003	1.4829639E-003	6.0537376E-002	8.5036847E-004	1.000000000000000E+000	11	3.0168315E-002	4.3008008E-004	1.707576333014812E-006	0.0000000E+000	-1.0007779E+002	1.4155537E-002	1.6896238E-003	1.4256018E-002	6.8066974E+000	-7.310257204872970E-007
2.8183453E+005	7.0177010E+001	7.7069502E+000	7.0598938E+001	-6.2671976E+000	8.196479695936432E+000	5.8259871E-003	1.4097417E-003	7.3272899E-002	8.7319681E-004	1.000000000000000E+000	11	3.6493748E-002	5.1691639E-004	2.322176005419654E-006	0.0000000E+000	-1.0009383E+002	1.4079866E-002	1.5462731E-003	1.4164519E-002	6.2671976E+000	6.145996724048422E-007
2.5118764E+005	7.0578087E+001	7.1400623E+000	7.0938332E+001	-5.7766981E+000	8.791470870870398E+000	5.8366135E-003	1.5508032E-003	8.8740095E-002	8.9900463E-004	1.000000000000000E+000	11	4.3609779E-002	6.1475619E-004	1.247961190228428E-006	0.0000000E+000	-1.0010986E+002	1.4025164E-002	1.4188616E-003	1.4096751E-002	5.7766981E+000	-1.074214815191226E-006
2.2387173E+005	7.0901581E+001	6.6135497E+000	7.1209358E+001	-5.3290095E+000	9.387481805839343E+000	5.8428776E-003	1.5515515E-003	1.0749450E-001	9.2721690E-004	1.000000000000000E+000	11	5.1576499E-002	7.2429382E-004	1.470970986469183E-006	0.0000000E+000	-1.0008581E+002	1.3982401E-002	1.3042488E-003	1.4043098E-002	5.3290095E+000	2.230097962407551E-007
1.9954350E+005	7.1164963E+001	6.1535845E+000	7.1430519E+001	-4.9420328E+000	9.982480287464568E+000	5.8212527E-003	1.3865221E-003	1.2961474E-001	9.6192921E-004	1.000000000000000E+000	11	6.0325127E-002	8.4452872E-004	2.984157103644975E-006	0.0000000E+000	-1.0009383E+002	1.3947573E-002	1.2060368E-003	1.3999619E-002	4.9420328E+000	1.513186117175792E-006
1.7783180E+005	7.1376686E+001	5.7580295E+000	7.1608566E+001	-4.6121206E+000	1.057748087568325E+001	5.8222036E-003	1.3499095E-003	1.5543072E-001	1.0049735E-003	1.000000000000000E+000	11	6.9822453E-002	9.7505725E-004	2.959523106439014E-006	0.0000000E+000	-1.0007779E+002	1.3919590E-002	1.1229074E-003	1.3964809E-002	4.6121206E+000	-2.463399720596085E-008
1.5848613E+005	7.1533730E+001	5.4162850E+000	7.1738487E+001	-4.3299751E+000	1.117348282402963E+001	5.8413129E-003	1.4474828E-003	1.8540753E-001	1.0568807E-003	1.000000000000000E+000	11	8.0028273E-002	1.1155556E-003	5.104995775017112E-006	0.0000000E+000	-1.0010986E+002	1.3899731E-002	1.0524393E-003	1.3939518E-002	4.3299751E+000	2.145472668578097E-006
1.4125594E+005	7.1664749E+001	5.1510472E+000	7.1849632E+001	-4.1111789E+000	1.176948495898978E+001	5.8560777E-003	1.4909778E-003	2.1873480E-001	1.1242421E-003	1.000000000000000E+000	11	9.0954609E-002	1.2659022E-003	6.143917677206143E-006	0.0000000E+000	-1.0006977E+002	1.3882142E-002	9.9780678E-004	1.3917956E-002	4.1111789E+000	1.038921902189031E-006
1.2590930E+005	7.1772995E+001	4.9179096E+000	7.1941284E+001	-3.9197991E+000	1.236648757403600E+001	5.8415928E-003	1.3878414E-003	2.5702882E-001	1.2011203E-003	1.000000000000000E+000	11	1.0271913E-001	1.4278189E-003	7.710954371471114E-006	0.0000000E+000	-1.0006175E+002	1.3867708E-002	9.5021998E-004	1.3900224E-002	3.9197991E+000	1.567036694264971E-006
1.1220494E+005	7.1867523E+001	4.7528014E+000	7.2024513E+001	-3.7836213E+000	1.282548162250896E+001	5.8114477E-003	7.8086974E-004	2.9844099E-001	1.2995624E-003	1.000000000000000E+000	11	1.1544871E-001	1.6029086E-003	7.119424297183286E-006	0.0000000E+000	-1.0006977E+002	1.3853899E-002	9.1619726E-004	1.3884162E-002	3.7836213E+000	-5.915300742878275E-007
1.0000371E+005	7.1949448E+001	4.6369286E+000	7.2098709E+001	-3.6874437E+000	1.328549671100336E+001	5.8505232E-003	1.3820879E-003	3.4322080E-001	1.4196439E-003	1.000000000000000E+000	11	1.2923574E-001	1.7924835E-003	8.788892080865076E-006	0.0000000E+000	-1.0011788E+002	1.3841160E-002	8.9202175E-004	1.3869874E-002	3.6874437E+000	1.669467783681790E-006
8.9129305E+004	7.2017441E+001	4.5685372E+000	7.2162201E+001	-3.6297824E+000	1.388148308594828E+001	5.9077744E-003	1.5335542E-003	3.9086112E-001	1.5665968E-003	1.000000000000000E+000	11	1.2936434E-001	1.7926884E-003	1.250472927885777E-005	0.0000000E+000	-1.0009383E+002	1.3829871E-002	8.7731919E-004	1.3857670E-002	3.6297824E+000	3.715837197992691E-006
7.9433273E+004	7.2071381E+001	4.5614815E+000	7.2215584E+001	-3.6214862E+000	1.447748042093008E+001	5.9529268E-003	1.6679211E-003	4.3924996E-001	1.7525150E-003	1.000000000000000E+000	11	1.2963367E-001	1.7950927E-003	1.563770550825090E-005	0.0000000E+000	-1.0008581E+002	1.3819775E-002	8.7466964E-004	1.3847427E-002	3.6214862E+000	3.132976229393132E-006
7.0794977E+004	7.2119141E+001	4.6056371E+000	7.2266052E+001	-3.6540329E+000	1.507248652921407E+001	5.9769759E-003	1.5181295E-003	4.8812154E-001	1.9826165E-003	1.000000000000000E+000	11	1.2955816E-001	1.7927942E-003	1.699945485557610E-005	0.0000000E+000	-1.0010986E+002	1.3809624E-002	8.8190346E-004	1.3837756E-002	3.6540329E+000	1.361749347325204E-006
6.3093828E+004	7.2163353E+001	4.6995897E+000	7.2316223E+001	-3.7260871E+000	1.566847450417117E+001	5.9938100E-003	1.5764842E-003	5.3675151E-001	2.2668445E-003	1.000000000000000E+000	11	1.2956236E-001	1.7916085E-003	1.892069346925321E-005	0.0000000E+000	-1.0013391E+002	1.3798925E-002	8.9864561E-004	1.3828156E-002	3.7260871E+000	1.921238613677110E-006
5.6237012E+004	7.2205498E+001	4.8453627E+000	7.2367889E+001	-3.8390875E+000	1.626449042584863E+001	6.0271802E-003	1.6039895E-003	5.8407903E-001	2.6183783E-003	1.000000000000000E+000	11	1.2944162E-001	1.7886609E-003	1.998391876729955E-005	0.0000000E+000	-1.0006175E+002	1.3787276E-002	9.2519750E-004	1.3818284E-002	3.8390875E+000	1.063225298046339E-006
5.0122477E+004	7.2234840E+001	5.0526800E+000	7.2411339E+001	-4.0012059E+000	1.686048800082062E+001	6.0314867E-003	1.4354263E-003	6.2844288E-001	3.0598226E-003	1.000000000000000E+000	11	1.2942557E-001	1.7873660E-003	2.150637340356156E-005	0.0000000E+000	-1.0008581E+002	1.3776331E-002	9.6362631E-004	1.3809992E-002	4.0012059E+000	1.522454636262007E-006
4.4666715E+004	7.2273956E+001	5.3190026E+000	7.2469421E+001	-4.2090950E+000	1.745548709572176E+001	6.0422248E-003	1.4547531E-003	6.6989368E-001	3.6087495E-003	1.000000000000000E+000	11	1.2938476E-001	1.7853704E-003	2.073034280607115E-005	0.0000000E+000	-1.0008581E+002	1.3761706E-002	1.0127928E-003	1.3798923E-002	4.2090950E+000	-7.760305974904132E-007
3.9814063E+004	7.2306801E+001	5.6489387E+000	7.2527122E+001	-4.4671354E+000	1.805247163077001E+001	6.0994201E-003	1.8048903E-003	7.0764720E-001	4.2928886E-003	1.000000000000000E+000	11	1.2931049E-001	1.7829259E-003	2.160615791249115E-005	0.0000000E+000	-1.0010184E+002	1.3746060E-002	1.0739053E-003	1.3787946E-002	4.4671354E+000	8.758151064200001E-007
3.5480996E+004	7.2355782E+001	6.0498524E+000	7.2608261E+001	-4.7795300E+000	1.851149453254766E+001	6.0681016E-003	1.4343158E-003	7.4144608E-001	5.1475079E-003	1.000000000000000E+000	11	1.4027873E-001	1.9319941E-003	2.116675322327582E-005	0.0000000E+000	-1.0004572E+002	1.3724647E-002	1.1475530E-003	1.3772538E-002	4.7795300E+000	-4.394046892153293E-007
3.1621143E+004	7.2394783E+001	6.5176396E+000	7.2687576E+001	-5.1444206E+000	1.910747237419127E+001	6.0985629E-003	1.6320526E-003	7.7223992E-001	6.2088696E-003	1.000000000000000E+000	11	1.3035820E-001	1.7934042E-003	2.168541318178177E-005	0.0000000E+000	-1.0009383E+002	1.3702092E-002	1.2335875E-003	1.3757509E-002	5.1444206E+000	5.186599585059493E-007
2.8188096E+004	7.2449303E+001	7.0600762E+000	7.2792488E+001	-5.5658145E+000	1.956747644938878E+001	6.0834070E-003	1.4854207E-003	7.9973298E-001	7.5229928E-003	1.000000000000000E+000	11	1.3981548E-001	1.9207406E-003	2.328728665993003E-005	0.0000000E+000	-1.0010184E+002	1.3672914E-002	1.3324050E-003	1.3737681E-002	5.5658145E+000	1.601873478148264E-006
2.5116910E+004	7.2502495E+001	7.6899652E+000	7.2909172E+001	-6.0544314E+000	2.016249311764841E+001	6.1089466E-003	1.5250039E-003	8.2400441E-001	9.1667194E-003	1.000000000000000E+000	11	1.3006118E-001	1.7838795E-003	2.131487940606894E-005	0.0000000E+000	-1.0009383E+002	1.3639191E-002	1.4466386E-003	1.3715696E-002	6.0544314E+000	-1.972407253861091E-006
2.2389027E+004	7.2565605E+001	8.4072027E+000	7.3050995E+001	-6.6086297E+000	2.062248439280665E+001	6.1004837E-003	1.4724113E-003	8.4553850E-001	1.1199127E-002	1.000000000000000E+000	11	1.3774872E-001	1.8856515E-003	2.310225362592609E-005	0.0000000E+000	-1.0009383E+002	1.3598110E-002	1.5754305E-003	1.3689067E-002	6.6086297E+000	1.787374219857154E-006
1.9948783E+004	7.2633591E+001	9.2262087E+000	7.3217224E+001	-7.2391696E+000	2.121747338105342E+001	6.1283722E-003	1.6517522E-003	8.6472988E-001	1.3730947E-002	1.000000000000000E+000	11	1.2972319E-001	1.7717578E-003	2.204989384715251E-005	0.0000000E+000	-1.0010986E+002	1.3549117E-002	1.7210629E-003	1.3657988E-002	7.2391696E+000	-1.052359778773582E-006
1.7786895E+004	7.2715752E+001	1.0149148E+001	7.3420609E+001	-7.9456077E+000	2.167749196293880E+001	6.1266203E-003	1.6075190E-003	8.8163823E-001	1.6846653E-002	1.000000000000000E+000	11	1.3562971E-001	1.8472975E-003	2.246786044582728E-005	0.0000000E+000	-1.0006977E+002	1.3489397E-002	1.8827540E-003	1.3620154E-002	7.9456077E+000	4.179665986747645E-007
1.5847686E+004	7.2799324E+001	1.1197428E+001	7.3655441E+001	-8.7442646E+000	2.227349567125202E+001	6.1318958E-003	1.5603156E-003	8.9688343E-001	2.0728262E-002	1.000000000000000E+000	11	1.2922409E-001	1.7544405E-003	2.238054481970741E-005	0.0000000E+000	-1.0006175E+002	1.3418923E-002	2.0639948E-003	1.3576729E-002	8.7442646E+000	-8.731562611986250E-008
1.4121879E+004	7.2907394E+001	1.2376473E+001	7.3950424E+001	-9.6344614E+000	2.273348817307851E+001	6.1299945E-003	1.5231459E-003	9.1060650E-001	2.5506051E-002	1.000000000000000E+000	11	1.3352014E-001	1.8055359E-003	2.301823665561258E-005	0.0000000E+000	-1.0010986E+002	1.3331844E-002	2.2631616E-003	1.3522573E-002	9.6344614E+000	6.376918359051648E-007
1.2590932E+004	7.3025055E+001	1.3693125E+001	7.4297783E+001	-1.0620358E+001	2.319348208824522E+001	6.1259493E-003	1.4528970E-003	9.2312330E-001	3.1355456E-002	1.000000000000000E+000	11	1.3720925E-001	1.8467476E-003	2.400887727161818E-005	0.0000000E+000	-1.0007779E+002	1.3228792E-002	2.4805663E-003	1.3459352E-002	1.0620358E+001	9.906406160055983E-007
1.1217711E+004	7.3163017E+001	1.5181586E+001	7.4721535E+001	-1.1722716E+001	2.365248032342060E+001	6.1383653E-003	1.5547404E-003	9.3454182E-001	3.8578160E-002	1.000000000000000E+000	11	1.4035691E-001	1.8783998E-003	2.273510934006966E-005	0.0000000E+000	-1.0006977E+002	1.3103884E-002	2.7191024E-003	1.3383023E-002	1.1722716E+001	-1.273767931548517E-006
1.0002229E+004	7.3313225E+001	1.6836641E+001	7.5221680E+001	-1.2933910E+001	2.424848283172469E+001	6.1370782E-003	1.4463895E-003	9.4507843E-001	4.7347028E-002	1.000000000000000E+000	11	1.2948169E-001	1.7213348E-003	2.086862346776373E-005	0.0000000E+000	-1.0008581E+002	1.2956755E-002	2.9755647E-003	1.3294039E-002	1.2933910E+001	-1.866485872305929E-006
8.9149297E+003	7.3487206E+001	1.8690279E+001	7.5826752E+001	-1.4269705E+001	2.473090970798512E+001	6.1577903E-003	1.7032325E-003	9.5518267E-001	5.8032740E-002	1.000000000000000E+000	11	1.3140565E-001	1.7329721E-003	2.167073543557975E-005	0.0000000E+000	-1.0009383E+002	1.2781059E-002	3.2506550E-003	1.3187958E-002	1.4269705E+001	8.021119678160174E-007
7.9439976E+003	7.3685272E+001	2.0769318E+001	7.6556412E+001	-1.5741300E+001	2.525699757298571E+001	6.1646695E-003	1.8253316E-003	9.6462560E-001	7.0997022E-002	1.000000000000000E+000	11	1.3294262E-001	1.7365314E-003	2.157500505801161E-005	0.0000000E+000	-1.0008581E+002	1.2572382E-002	3.5437176E-003	1.3062263E-002	1.5741300E+001	-9.573037756813990E-008
7.0822334E+003	7.3912598E+001	2.3078510E+001	7.7431839E+001	-1.7340481E+001	2.583387562705320E+001	6.1760047E-003	1.9452035E-003	9.7373801E-001	8.6500481E-002	1.000000000000000E+000	11	1.3414103E-001	1.7323756E-003	2.343632349093160E-005	0.0000000E+000	-1.0010986E+002	1.2327622E-002	3.8491834E-003	1.2914584E-002	1.7340481E+001	1.861318432919991E-006
6.3077344E+003	7.4169258E+001	2.5675207E+001	7.8487549E+001	-1.9094341E+001	2.646853467050823E+001	6.1877118E-003	1.8507926E-003	9.8272681E-001	1.0516208E-001	1.000000000000000E+000	11	1.3505666E-001	1.7207399E-003	2.221139452502959E-005	0.0000000E+000	-1.0006175E+002	1.2039888E-002	4.1678534E-003	1.2740875E-002	1.9094341E+001	-1.224928965902006E-006
5.6210552E+003	7.4458389E+001	2.8561886E+001	7.9748558E+001	-2.0986578E+001	2.716926179712755E+001	6.1977976E-003	1.8338808E-003	9.9132347E-001	1.2715794E-001	1.000000000000000E+000	11	1.3571027E-001	1.7017269E-003	2.303683075838490E-005	0.0000000E+000	-1.0009383E+002	1.1707602E-002	4.4909809E-003	1.2539412E-002	2.0986578E+001	8.254362333553026E-007
5.0116035E+003	7.4779976E+001	3.1755188E+001	8.1243073E+001	-2.3008421E+001	2.792969231327879E+001	6.1901542E-003	1.8006134E-003	1.0000662E+000	1.5278666E-001	1.000000000000000E+000	11	1.3614117E-001	1.6757264E-003	2.234325837186771E-005	0.0000000E+000	-1.0007779E+002	1.1329549E-002	4.8110737E-003	1.2308742E-002	2.3008421E+001	-6.935723865171899E-007
4.4664292E+003	7.5149132E+001	3.5327927E+001	8.3038872E+001	-2.5178417E+001	2.868968341604341E+001	6.1992332E-003	1.8026567E-003	1.0086524E+000	1.8256392E-001	1.000000000000000E+000	11	1.3640159E-001	1.6426235E-003	2.175983372544579E-005	0.0000000E+000	-1.0006175E+002	1.0898358E-002	5.1233647E-003	1.2042553E-002	2.5178417E+001	-5.834246464219190E-007
3.9812742E+003	7.5568184E+001	3.9297626E+001	8.5175430E+001	-2.7475727E+001	2.944966371880582E+001	6.1924285E-003	1.8379664E-003	1.0172594E+000	2.1653877E-001	1.000000000000000E+000	11	1.3651708E-001	1.6027753E-003	2.086917654175259E-005	0.0000000E+000	-1.0010986E+002	1.0416225E-002	5.4167355E-003	1.1740475E-002	2.7475727E+001	-8.906571836931931E-007
3.5465955E+003	7.6038345E+001	4.3735672E+001	8.7719093E+001	-2.9906614E+001	3.020993740824633E+001	6.1916271E-003	1.8318323E-003	1.0260599E+000	2.5506803E-001	1.000000000000000E+000	11	1.3649967E-001	1.5561000E-003	2.012844940672706E-005	0.0000000E+000	-1.0012590E+002	9.8819900E-003	5.6839143E-003	1.1400026E-002	2.9906614E+001	-7.407271350255307E-007
3.1610112E+003	7.6571739E+001	4.8649925E+001	9.0719604E+001	-3.2429874E+001	3.096969965766766E+001	6.1893342E-003	1.7879714E-003	1.0349323E+000	2.9762813E-001	1.000000000000000E+000	11	1.3639009E-001	1.5034246E-003	1.923820522450195E-005	0.0000000E+000	-1.0002968E+002	9.3039256E-003	5.9112576E-003	1.1022976E-002	3.2429874E+001	-8.902441822251125E-007
2.8172952E+003	7.7165581E+001	5.4120777E+001	9.4252777E+001	-3.5044247E+001	3.172994326709886E+001	6.1953184E-003	1.8881408E-003	1.0438155E+000	3.4416246E-001	1.000000000000000E+000	11	1.3620427E-001	1.4450956E-003	1.857511357304045E-005	0.0000000E+000	-1.0005373E+002	8.6863106E-003	6.0922224E-003	1.0609767E-002	3.5044247E+001	-6.630916514614991E-007
2.5108032E+003	7.7832855E+001	6.0196419E+001	9.8394928E+001	-3.7718594E+001	3.248970652986463E+001	6.1793602E-003	1.7100971E-003	1.0530205E+000	3.9412382E-001	1.000000000000000E+000	11	1.3596384E-001	1.3818176E-003	1.930750308822219E-005	0.0000000E+000	-1.0008581E+002	8.0392864E-003	6.2176352E-003	1.0163126E-002	3.7718594E+001	7.323895151817421E-007
2.2378516E+003	7.8569359E+001	6.6952728E+001	1.0322699E+002	-4.0435913E+001	3.324993653930142E+001	6.1938828E-003	1.8998429E-003	1.0622350E+000	4.4685909E-001	1.000000000000000E+000	11	1.3568681E-001	1.3144510E-003	2.093855864757077E-005	0.0000000E+000	-1.0009383E+002	7.3733809E-003	6.2832125E-003	9.6873892E-003	4.0435913E+001	1.631055559348577E-006
1.9956389E+003	7.9383636E+001	7.4419662E+001	1.0881199E+002	-4.3151432E+001	3.400970905539725E+001	6.1742146E-003	1.6480137E-003	1.0716438E+000	5.0127077E-001	1.000000000000000E+000	11	1.3538212E-001	1.2441839E-003	2.031125006493918E-005	0.0000000E+000	-1.0005373E+002	6.7046713E-003	6.2854188E-003	9.1901636E-003	4.3151432E+001	-6.273085826315875E-007
1.7782927E+003	8.0293877E+001	8.2784302E+001	1.1532713E+002	-4.5874916E+001	3.476994429147453E+001	6.1908998E-003	1.8333017E-003	1.0811075E+000	5.5705988E-001	1.000000000000000E+000	11	1.3508028E-001	1.1712792E-003	2.118938831549733E-005	0.0000000E+000	-1.0010986E+002	6.0369759E-003	6.2242211E-003	8.6709866E-003	4.5874916E+001	8.781382505581445E-007
1.5855076E+003	8.1286240E+001	9.2041924E+001	1.2279726E+002	-4.8550873E+001	3.552970422092767E+001	6.1983010E-003	1.8814360E-003	1.0906016E+000	6.1271727E-001	1.000000000000000E+000	11	1.3478090E-001	1.0975888E-003	2.230649666052907E-005	0.0000000E+000	-1.0007779E+002	5.3906315E-003	6.1039128E-003	8.1435042E-003	4.8550873E+001	1.117108345031737E-006
1.4118373E+003	8.2395096E+001	1.0245689E+002	1.3147763E+002	-5.1194008E+001	3.629018532365444E+001	6.1971452E-003	1.9189749E-003	1.1002574E+000	6.6814840E-001	1.000000000000000E+000	11	1.3448900E-001	1.0229041E-003	2.308677790701363E-005	0.0000000E+000	-1.0006175E+002	4.7664787E-003	5.9270347E-003	7.6058568E-003	5.1194008E+001	7.802812464845697E-007
1.2587914E+003	8.3591080E+001	1.1392100E+002	1.4129919E+002	-5.3730133E+001	3.704995330644306E+001	6.1925775E-003	1.8760434E-003	1.1098456E+000	7.2142428E-001	1.000000000000000E+000	11	1.3421559E-001	9.4986806E-004	2.308510518451092E-005	0.0000000E+000	-1.0007779E+002	4.1867844E-003	5.7059033E-003	7.0771812E-003	5.3730133E+001	-1.672722502716028E-009
1.1217948E+003	8.4918800E+001	1.2673134E+002	1.5255174E+002	-5.6175167E+001	3.780843563578674E+001	6.1966232E-003	1.9087528E-003	1.1194963E+000	7.7260298E-001	1.000000000000000E+000	11	1.3396697E-001	8.7817392E-004	2.357181376904434E-005	0.0000000E+000	-1.0006977E+002	3.6489635E-003	5.4456494E-003	6.5551531E-003	5.6175167E+001	4.867085845334170E-007
1.0003201E+003	8.6374428E+001	1.4091898E+002	1.6528369E+002	-5.8494335E+001	3.856769852522120E+001	6.1936588E-003	1.8325534E-003	1.1290461E+000	8.2071167E-001	1.000000000000000E+000	11	1.3375257E-001	8.0923032E-004	2.324880002061319E-005	0.0000000E+000	-1.0006175E+002	3.1617326E-003	5.1583340E-003	6.0502035E-003	5.8494335E+001	-3.230137484311453E-007
8.9142657E+002	8.7954987E+001	1.5682588E+002	1.7980667E+002	-6.0714336E+001	3.932641077451990E+001	6.1965673E-003	1.8940675E-003	1.1384574E+000	8.6604542E-001	1.000000000000000E+000	11	1.3355401E-001	7.4276450E-004	2.301333089328384E-005	0.0000000E+000	-1.0010184E+002	2.7205008E-003	4.8507191E-003	5.5615287E-003	6.0714336E+001	-2.354691273293502E-007
7.9423773E+002	8.9716339E+001	1.7457048E+002	1.9627499E+002	-6.2800182E+001	4.008592923730612E+001	6.1980584E-003	1.8680461E-003	1.1478862E+000	9.0805149E-001	1.000000000000000E+000	11	1.3338608E-001	6.7958771E-004	2.383010400415191E-005	0.0000000E+000	-1.0009383E+002	2.3288503E-003	4.5314883E-003	5.0948923E-003	6.2800182E+001	8.167731108680729E-007
7.0750946E+002	9.1653664E+001	1.9439738E+002	2.1492030E+002	-6.4757256E+001	4.084847116682795E+001	6.1969212E-003	1.8966609E-003	1.1571708E+000	9.4672406E-001	1.000000000000000E+000	11	1.3323924E-001	6.1994721E-004	2.370393771142375E-005	0.0000000E+000	-1.0008581E+002	1.9842435E-003	4.2085792E-003	4.6528876E-003	6.4757256E+001	-1.261662927281585E-007
6.3100964E+002	9.3751076E+001	2.1625252E+002	2.3569984E+002	-6.6562019E+001	4.160641149614821E+001	6.1889049E-003	1.8537304E-003	1.1663340E+000	9.8180836E-001	1.000000000000000E+000	11	1.3311680E-001	5.6477252E-004	2.373026434624141E-005	0.0000000E+000	-1.0005373E+002	1.6875538E-003	3.8926252E-003	4.2426842E-003	6.6562019E+001	2.632663481765267E-008
5.6233929E+002	9.6095032E+001	2.4077840E+002	2.5924600E+002	-6.8242981E+001	4.236292227881495E+001	6.1966418E-003	1.9180317E-003	1.1754501E+000	1.0139467E+000	1.000000000000000E+000	11	1.3301717E-001	5.1309244E-004	2.422955523842635E-005	0.0000000E+000	-1.0005373E+002	1.4298050E-003	3.5825593E-003	3.8573402E-003	6.8242981E+001	4.992908921849463E-007
5.0144415E+002	9.8684868E+001	2.6795593E+002	2.8555051E+002	-6.9781868E+001	4.312015391475870E+001	6.1949268E-003	1.8195331E-003	1.1844976E+000	1.0430259E+000	1.000000000000000E+000	11	1.3292564E-001	4.6550660E-004	2.426265218150517E-005	0.0000000E+000	-1.0007779E+002	1.2102769E-003	3.2862267E-003	3.5020073E-003	6.9781868E+001	3.309694307881660E-008
4.4685895E+002	1.0152986E+002	2.9854395E+002	3.1533600E+002	-7.1217682E+001	4.412692518925178E+001	6.1904527E-003	1.3960429E-004	1.1930027E+000	1.0693278E+000	1.000000000000000E+000	12	1.3579649E-001	4.3064062E-004	2.456895956502962E-005	0.0000000E+000	-1.0010184E+002	1.0210491E-003	3.0023488E-003	3.1712207E-003	7.1217682E+001	3.063073835244499E-007
3.9808920E+002	1.0472634E+002	3.3266107E+002	3.4875635E+002	-7.2525269E+001	4.488972298549925E+001	6.1848410E-003	1.4217745E-004	1.2018154E+000	1.0934463E+000	1.000000000000000E+000	12	1.3517378E-001	3.8758802E-004	2.471596923015184E-005	0.0000000E+000	-1.0004572E+002	8.6101703E-004	2.7350024E-003	2.8673313E-003	7.2525269E+001	1.470096651222186E-007
3.5465955E+002	1.0829737E+002	3.7065488E+002	3.8615198E+002	-7.3712776E+001	4.564993062158464E+001	6.1870967E-003	1.7194118E-004	1.2107062E+000	1.1154797E+000	1.000000000000000E+000	12	1.3465978E-001	3.4872224E-004	2.452189641808703E-005	0.0000000E+000	-1.0006175E+002	7.2627538E-004	2.4857256E-003	2.5896539E-003	7.3712776E+001	-1.940728120648103E-007
3.1631586E+002	1.1221587E+002	4.1266614E+002	4.2765143E+002	-7.4787460E+001	4.640692807087908E+001	6.1931182E-003	1.3963973E-004	1.2192712E+000	1.1353196E+000	1.000000000000000E+000	12	1.3425076E-001	3.1392567E-004	2.484561142016254E-005	0.0000000E+000	-1.0008581E+002	6.1358471E-004	2.2564151E-003	2.3383531E-003	7.4787460E+001	3.237150020755113E-007
2.8189429E+002	1.1662767E+002	4.5978378E+002	4.7434497E+002	-7.5766685E+001	4.716238509342656E+001	6.1901915E-003	1.3607691E-004	1.2279485E+000	1.1537160E+000	1.000000000000000E+000	12	1.3391185E-001	2.8230899E-004	2.467334060457425E-005	0.0000000E+000	-1.0006977E+002	5.1833800E-004	2.0434549E-003	2.1081704E-003	7.5766685E+001	-1.722708155882887E-007
2.5104436E+002	1.2159422E+002	5.1265009E+002	5.2687311E+002	-7.6656731E+001	4.791892256936990E+001	6.1945911E-003	1.5651436E-004	1.2366552E+000	1.1707890E+000	1.000000000000000E+000	12	1.3365231E-001	2.5367079E-004	2.485421992234640E-005	0.0000000E+000	-1.0006175E+002	4.3802694E-004	1.8467538E-003	1.8979902E-003	7.6656731E+001	1.808793177721481E-007
2.2392513E+002	1.2702062E+002	5.7078638E+002	5.8474896E+002	-7.7454048E+001	4.868171585894743E+001	6.1897440E-003	1.4662973E-004	1.2452133E+000	1.1864570E+000	1.000000000000000E+000	12	1.3343093E-001	2.2818497E-004	2.502218079330891E-005	0.0000000E+000	-1.0006977E+002	3.7148001E-004	1.6693012E-003	1.7101356E-003	7.7454048E+001	1.679608709625120E-007
1.9955299E+002	1.3322772E+002	6.3601880E+002	6.4982269E+002	-7.8169235E+001	4.944319285507663E+001	6.1987857E-003	1.2820421E-004	1.2539839E+000	1.2012740E+000	1.000000000000000E+000	12	1.3325147E-001	2.0505821E-004	2.530502312466302E-005	0.0000000E+000	-1.0005373E+002	3.1550394E-004	1.5061916E-003	1.5388813E-003	7.8169235E+001	2.828423313541068E-007
1.7778128E+002	1.4011183E+002	7.0905377E+002	7.2276453E+002	-7.8822128E+001	5.021125563819078E+001	6.2032598E-003	1.5461106E-004	1.2625685E+000	1.2151213E+000	1.000000000000000E+000	12	1.3311107E-001	1.8416934E-004	2.540861364059836E-005	0.0000000E+000	-1.0008581E+002	2.6821386E-004	1.3573301E-003	1.3835764E-003	7.8822128E+001	1.035905159353401E-007
1.5842838E+002	1.4792014E+002	7.9024170E+002	8.0396661E+002	-7.9397865E+001	5.097776095465815E+001	6.2012463E-003	1.4983657E-004	1.2712390E+000	1.2282057E+000	1.000000000000000E+000	12	1.3299999E-001	1.6542974E-004	2.540015330764840E-005	0.0000000E+000	-1.0010184E+002	2.2885027E-004	1.2225986E-003	1.2438328E-003	7.9397865E+001	-8.460332949958142E-009
1.4131134E+002	1.5646358E+002	8.7987506E+002	8.9367834E+002	-7.9916794E+001	5.173090517710079E+001	6.1928760E-003	1.5220462E-004	1.2800359E+000	1.2407997E+000	1.000000000000000E+000	12	1.3290596E-001	1.4871790E-004	2.541096790104105E-005	0.0000000E+000	-1.0008581E+002	1.9590734E-004	1.1016878E-003	1.1189708E-003	7.9916794E+001	1.081459339265299E-008
1.2584569E+002	1.6627243E+002	9.8112622E+002	9.9511566E+002	-8.0381416E+001	5.248640054630232E+001	6.1961943E-003	1.4649708E-004	1.2890118E+000	1.2530245E+000	1.000000000000000E+000	12	1.3283467E-001	1.3348667E-004	2.543372142068013E-005	0.0000000E+000	-1.0010184E+002	1.6790867E-004	9.9078123E-004	1.0049084E-003	8.0381416E+001	2.275351963908093E-008
1.1218996E+002	1.7706937E+002	1.0930732E+003	1.1073223E+003	-8.0798462E+001	5.323185420839582E+001	6.1910301E-003	1.1878358E-004	1.2978272E+000	1.2646413E+000	1.000000000000000E+000	12	1.3277104E-001	1.1990280E-004	2.553218369407760E-005	0.0000000E+000	-1.0008581E+002	1.4440935E-004	8.9145859E-004	9.0307946E-004	8.0798462E+001	9.846227339747003E-008