EC-Lab ASCII FILE
Nb header lines : 75                          

Potentio Electrochemical Impedance Spectroscopy

Run on channel : 3 (SN 20921)
User : 
CE vs. WE compliance from -10 V to 10 V
Electrode connection : standard
Ewe ctrl range : min = -10.00 V, max = 10.00 V
Safety Limits :
	Do not start on E overload
Acquisition started on : 01/24/2020 09:55:40
Technique started on : 01/24/2020 09:55:41
Saved on :
	File : DE_40_15_60.mpr
	Directory : P:\Chemistry\Data\VMP3\Kyler\DOE\DE_40\2ND 60C\
	Host : 10.0.4.99
Device : VMP3 (SN 0183)
Address : USB
EC-Lab for windows v11.33 (software)
Internet server v11.32 (firmware)
Command interpretor v11.33 (firmware)
Electrode material : 
Initial state : 
Electrolyte : 
Comments : 
Electrode surface area : 0.001 cm²
Characteristic mass : 0.001 g
Equivalent Weight : 0.000 g/eq.
Density : 0.000 g/cm3
Record Analogic IN 1
Cycle Definition : Charge/Discharge alternance
External device configuration :
   device type : Thermostat
   device name : Other
   Analog OUT : 
      mode : E/V
      unit : T/°C
      max : 400.000 at 5.000 V
      min : -100.000 at 0.000 V
      current : 0.000
   Analog IN 1 : 
      unit : T/°C
      max : 400.000 at 5.000 V
      min : -100.000 at 0.000 V
Mode                Single sine         
E (V)               0.0000              
vs.                 Eoc                 
tE (h:m:s)          0:00:0.0000         
record              0                   
dI                  1.000               
unit dI             mA                  
dt (s)              0.000               
fi                  1.000               
unit fi             MHz                 
ff                  1.000               
unit ff             Hz                  
Nd                  20                  
Points              per decade          
spacing             Logarithmic         
Va (mV)             128.0               
pw                  0.50                
Na                  3                   
corr                0                   
E range min (V)     -10.000             
E range max (V)     10.000              
I Range             Auto                
Bandwidth           5                   
nc cycles           0                   
goto Ns'            0                   
nr cycles           0                   
inc. cycle          1                   

freq/Hz	Re(Z)/Ohm	-Im(Z)/Ohm	|Z|/Ohm	Phase(Z)/deg	time/s	<Ewe>/V	<I>/mA	Cs/µF	Cp/µF	cycle number	I Range	|Ewe|/V	|I|/A	(Q-Qo)/mA.h	Analog OUT/V	Analog IN 1/V	Re(Y)/Ohm-1	Im(Y)/Ohm-1	|Y|/Ohm-1	Phase(Y)/deg	dq/mA.h	
1.0000186E+006	1.4149096E+001	1.0598462E+000	1.4188735E+001	-4.2837734E+000	1.845600087690400E+000	-6.1527777E-002	2.4948044E-001	1.5016517E-001	8.3785242E-004	1.000000000000000E+000	9	3.6493544E-005	2.5720083E-006	2.592859191696900E-005	0.0000000E+000	-1.0009594E+002	7.0281550E-002	5.2644801E-003	7.0478447E-002	4.2837734E+000	2.592859191696900E-005
8.9124669E+005	6.3813374E+001	1.6887625E+001	6.6010139E+001	-1.4822998E+001	3.020481423445744E+000	-6.1182227E-002	2.0216885E-003	1.0574349E-002	6.9210102E-004	1.000000000000000E+000	11	3.8964799E-004	5.9028503E-006	4.987692327615312E-005	0.0000000E+000	-1.0007188E+002	1.4645035E-002	3.8756747E-003	1.5149188E-002	1.4822998E+001	2.394833135918412E-005
7.9433269E+005	6.5069748E+001	1.5566648E+001	6.6905846E+001	-1.3454021E+001	3.615488065028330E+000	-6.0842246E-002	2.0667948E-003	1.2871305E-002	6.9676235E-004	1.000000000000000E+000	11	1.1395013E-003	1.7031416E-005	5.032824084129040E-005	0.0000000E+000	-1.0007990E+002	1.4536203E-002	3.4774987E-003	1.4946377E-002	1.3454021E+001	4.513175651372857E-007
7.0794981E+005	6.7156586E+001	1.4158041E+001	6.8632767E+001	-1.1904844E+001	4.210486306605162E+000	-6.0547970E-002	2.0630681E-003	1.5878683E-002	6.7570602E-004	1.000000000000000E+000	11	2.3715217E-003	3.4553781E-005	5.059070994577228E-005	0.0000000E+000	-1.0011197E+002	1.4256915E-002	3.0056622E-003	1.4570300E-002	1.1904844E+001	2.624691044818815E-007
6.3095681E+005	6.9076073E+001	1.2959392E+001	7.0281219E+001	-1.0625767E+001	4.806470308249118E+000	-6.0264613E-002	2.2643670E-003	1.9464169E-002	6.6179968E-004	1.000000000000000E+000	11	4.1625230E-003	5.9226673E-005	5.104414896890032E-005	0.0000000E+000	-1.0007188E+002	1.3984568E-002	2.6236507E-003	1.4228553E-002	1.0625767E+001	4.534390231280362E-007
5.6234225E+005	7.0636467E+001	1.2062006E+001	7.1658928E+001	-9.6904593E+000	5.401491136552067E+000	-6.0063899E-002	2.1264416E-003	2.3463884E-002	6.6481123E-004	1.000000000000000E+000	11	6.5637645E-003	9.1597300E-005	5.148790923604307E-005	0.0000000E+000	-1.0007990E+002	1.3755878E-002	2.3489778E-003	1.3954995E-002	9.6904593E+000	4.437602671427546E-007
5.0120619E+005	7.2011467E+001	1.1134420E+001	7.2867188E+001	-8.7894754E+000	5.996483271446778E+000	-5.9902735E-002	2.0123741E-003	2.8519118E-002	6.6589739E-004	1.000000000000000E+000	11	9.6005220E-003	1.3175371E-004	5.148239771511807E-005	0.0000000E+000	-1.0005585E+002	1.3562434E-002	2.0970248E-003	1.3723598E-002	8.7894754E+000	-5.511520925007051E-009
4.4668572E+005	7.3043388E+001	1.0348950E+001	7.3772881E+001	-8.0641203E+000	6.592482579784701E+000	-5.9791543E-002	2.0380961E-003	3.4428790E-002	6.7751802E-004	1.000000000000000E+000	11	1.3295368E-002	1.8022028E-004	5.183107405932808E-005	0.0000000E+000	-1.0008792E+002	1.3421080E-002	1.9015286E-003	1.3555117E-002	8.0641203E+000	3.486763442100120E-007
3.9810347E+005	7.3956650E+001	9.5378361E+000	7.4569138E+001	-7.3486013E+000	7.188484954735031E+000	-5.9756242E-002	2.0833896E-003	4.1915469E-002	6.8573421E-004	1.000000000000000E+000	11	1.7653074E-002	2.3673433E-004	5.165840849901401E-005	0.0000000E+000	-1.0003982E+002	1.3300225E-002	1.7152665E-003	1.3410374E-002	7.3486013E+000	-1.726655603140735E-007
3.5480997E+005	7.4645439E+001	8.7538414E+000	7.5156975E+001	-6.6886563E+000	7.783479862991953E+000	-5.9761532E-002	1.9361469E-003	5.1241949E-002	6.9515943E-004	1.000000000000000E+000	11	2.2763671E-002	3.0288170E-004	5.279563155404241E-005	0.0000000E+000	-1.0008792E+002	1.3214924E-002	1.5497444E-003	1.3305485E-002	6.6886563E+000	1.137223055028400E-006
3.1622997E+005	7.5197075E+001	8.0721064E+000	7.5629089E+001	-6.1270108E+000	8.378479331237031E+000	-5.9756037E-002	2.0146177E-003	6.2349103E-002	7.1027450E-004	1.000000000000000E+000	11	2.8568275E-002	3.7774188E-004	5.344516746482178E-005	0.0000000E+000	-1.0007990E+002	1.3146895E-002	1.4112667E-003	1.3222425E-002	6.1270108E+000	6.495359107793765E-007
2.8183453E+005	7.5621445E+001	7.4047394E+000	7.5983109E+001	-5.5924892E+000	8.974470212910092E+000	-5.9740417E-002	2.1887037E-003	7.6263398E-002	7.2427181E-004	1.000000000000000E+000	11	3.5177134E-002	4.6295990E-004	5.273713124896717E-005	0.0000000E+000	-1.0008792E+002	1.3098177E-002	1.2825540E-003	1.3160820E-002	5.5924892E+000	-7.080362158546160E-007
2.5118764E+005	7.5939995E+001	6.8277998E+000	7.6246323E+001	-5.1376758E+000	9.570483121235156E+000	-5.9747349E-002	2.1368889E-003	9.2798524E-002	7.4415747E-004	1.000000000000000E+000	11	4.2605758E-002	5.5879098E-004	5.204438781129526E-005	0.0000000E+000	-1.0007188E+002	1.3062694E-002	1.1744729E-003	1.3115386E-002	5.1376758E+000	-6.927434376719039E-007
2.2387173E+005	7.6174606E+001	6.3043818E+000	7.6435043E+001	-4.7311454E+000	1.016548744283500E+001	-5.9707575E-002	2.4263565E-003	1.1276604E-001	7.6714653E-004	1.000000000000000E+000	11	5.0947279E-002	6.6654343E-004	5.274265216948536E-005	0.0000000E+000	-1.0005585E+002	1.3038427E-002	1.0790896E-003	1.3083004E-002	4.7311454E+000	6.982643581900956E-007
1.9954350E+005	7.6353928E+001	5.8445120E+000	7.6577286E+001	-4.3771701E+000	1.076148528445628E+001	-5.9714641E-002	2.2735221E-003	1.3646910E-001	7.9493364E-004	1.000000000000000E+000	11	6.0049061E-002	7.8416284E-004	5.184071745597208E-005	0.0000000E+000	-1.0007990E+002	1.3020613E-002	9.9666289E-004	1.3058702E-002	4.3771701E+000	-9.019347135132789E-007
1.7783180E+005	7.6487373E+001	5.4572959E+000	7.6681816E+001	-4.0810795E+000	1.135647019269527E+001	-5.9712943E-002	2.0392344E-003	1.6399598E-001	8.3062204E-004	1.000000000000000E+000	11	6.9939740E-002	9.1207726E-004	5.232947557994339E-005	0.0000000E+000	-1.0006387E+002	1.3007834E-002	9.2809566E-004	1.3040901E-002	4.0810795E+000	4.887581239713148E-007
1.5848613E+005	7.6593948E+001	5.1378942E+000	7.6766083E+001	-3.8376305E+000	1.195349070106749E+001	-5.9681930E-002	2.3672769E-003	1.9545363E-001	8.7553856E-004	1.000000000000000E+000	11	8.0588028E-002	1.0497869E-003	5.401663577900642E-005	0.0000000E+000	-1.0010395E+002	1.2997378E-002	8.7185926E-004	1.3026587E-002	3.8376305E+000	1.687160199063026E-006
1.4125594E+005	7.6667236E+001	4.8827472E+000	7.6822563E+001	-3.6441052E+000	1.254949430268607E+001	-5.9702113E-002	2.0612301E-003	2.3075396E-001	9.3218061E-004	1.000000000000000E+000	11	9.1931798E-002	1.1966771E-003	5.290952676501507E-005	0.0000000E+000	-1.0011197E+002	1.2990690E-002	8.2734501E-004	1.3017009E-002	3.6441052E+000	-1.107109013991351E-006
1.2590930E+005	7.6733200E+001	4.6873436E+000	7.6876236E+001	-3.4956405E+000	1.314449094430893E+001	-5.9679523E-002	2.2254502E-003	2.6967180E-001	1.0025473E-003	1.000000000000000E+000	11	1.0412072E-001	1.3543941E-003	5.151747250489522E-005	0.0000000E+000	-1.0007188E+002	1.2983719E-002	7.9312670E-004	1.3007921E-002	3.4956405E+000	-1.392054260119851E-006
1.1220494E+005	7.6791100E+001	4.5511103E+000	7.6925842E+001	-3.3917310E+000	1.360447773945634E+001	-5.9715308E-002	1.8040319E-003	3.1166700E-001	1.0908900E-003	1.000000000000000E+000	11	1.1720663E-001	1.5236315E-003	5.115948090332839E-005	0.0000000E+000	-1.0005585E+002	1.2976763E-002	7.6908234E-004	1.2999533E-002	3.3917310E+000	-3.579916015668320E-007
1.0000371E+005	7.6844246E+001	4.4580002E+000	7.6973450E+001	-3.3202047E+000	1.406347085462767E+001	-5.9666291E-002	2.3630147E-003	3.5699648E-001	1.1974633E-003	1.000000000000000E+000	11	1.3144647E-001	1.7076858E-003	5.170302236305078E-005	0.0000000E+000	-1.0009594E+002	1.2969686E-002	7.5241632E-004	1.2991493E-002	3.3202047E+000	5.435414597223934E-007
8.9129305E+004	7.6886276E+001	4.4195237E+000	7.7013191E+001	-3.2898164E+000	1.465849341623834E+001	-5.9612446E-002	2.2379460E-003	4.0403980E-001	1.3305919E-003	1.000000000000000E+000	11	1.2965523E-001	1.6835456E-003	4.883931893705125E-005	0.0000000E+000	-1.0007990E+002	1.2963390E-002	7.4515259E-004	1.2984788E-002	3.2898164E+000	-2.863703425999526E-006
7.9433273E+004	7.6913673E+001	4.4356494E+000	7.7041473E+001	-3.3006198E+000	1.525347483114456E+001	-5.9546802E-002	2.5320677E-003	4.5171079E-001	1.4973583E-003	1.000000000000000E+000	11	1.2963106E-001	1.6826140E-003	4.768355414636123E-005	0.0000000E+000	-1.0010395E+002	1.2958490E-002	7.4732251E-004	1.2980022E-002	3.3006198E+000	-1.155764790690025E-006
7.0794977E+004	7.6942871E+001	4.5065932E+000	7.7074738E+001	-3.3520207E+000	1.584847205938422E+001	-5.9557315E-002	2.1346882E-003	4.9884924E-001	1.7054615E-003	1.000000000000000E+000	11	1.2961134E-001	1.6816320E-003	4.920964321017931E-005	0.0000000E+000	-1.0006387E+002	1.2952222E-002	7.5861992E-004	1.2974420E-002	3.3520207E+000	1.526089063818087E-006
6.3093828E+004	7.6966187E+001	4.6300163E+000	7.7105324E+001	-3.4425647E+000	1.644347971430398E+001	-5.9516497E-002	2.3508999E-003	5.4481709E-001	1.9644774E-003	1.000000000000000E+000	11	1.2953678E-001	1.6799979E-003	4.922546810263399E-005	0.0000000E+000	-1.0011197E+002	1.2945870E-002	7.7877817E-004	1.2969273E-002	3.4425647E+000	1.582489245467543E-008
5.6237012E+004	7.6994812E+001	4.8048868E+000	7.7144592E+001	-3.5709314E+000	1.703947619596147E+001	-5.9506301E-002	2.2051432E-003	5.8899927E-001	2.2849152E-003	1.000000000000000E+000	11	1.2948334E-001	1.6784500E-003	4.907558824050001E-005	0.0000000E+000	-1.0007188E+002	1.2937504E-002	8.0736919E-004	1.2962671E-002	3.5709314E+000	-1.498798621339786E-007
5.0122477E+004	7.7016747E+001	5.0336938E+000	7.7181068E+001	-3.7394435E+000	1.763448558424716E+001	-5.9503563E-002	2.1393478E-003	6.3081324E-001	2.6831985E-003	1.000000000000000E+000	11	1.2945476E-001	1.6772865E-003	5.186512502644230E-005	0.0000000E+000	-1.0008792E+002	1.2928960E-002	8.4501650E-004	1.2956545E-002	3.7394435E+000	2.789536785942291E-006
4.4666715E+004	7.7040215E+001	5.3269105E+000	7.7224159E+001	-3.9553950E+000	1.822949014583719E+001	-5.9458587E-002	2.3302091E-003	6.6889924E-001	3.1827691E-003	1.000000000000000E+000	11	1.2932360E-001	1.6746521E-003	5.092057517276246E-005	0.0000000E+000	-1.0006387E+002	1.2918471E-002	8.9324178E-004	1.2949316E-002	3.9553950E+000	-9.445498536798434E-007
3.9814063E+004	7.7069893E+001	5.6812191E+000	7.7279007E+001	-4.2159419E+000	1.868948979434208E+001	-5.9486303E-002	1.9678748E-003	7.0362633E-001	3.8027880E-003	1.000000000000000E+000	11	1.4071202E-001	1.8208311E-003	5.241823867826639E-005	0.0000000E+000	-1.0005585E+002	1.2905110E-002	9.5130212E-004	1.2940125E-002	4.2159419E+000	1.497663505503926E-006
3.5480996E+004	7.7101196E+001	6.1084270E+000	7.7342789E+001	-4.5298595E+000	1.928448302260949E+001	-5.9415068E-002	2.5231191E-003	7.3433620E-001	4.5805126E-003	1.000000000000000E+000	11	1.3042863E-001	1.6863708E-003	5.295544935871375E-005	0.0000000E+000	-1.0007188E+002	1.2889066E-002	1.0211505E-003	1.2929454E-002	4.5298595E+000	5.372106804473633E-007
3.1621143E+004	7.7142609E+001	6.5976887E+000	7.7424232E+001	-4.8883753E+000	1.974347672439762E+001	-5.9446938E-002	2.0137231E-003	7.6287037E-001	5.5396277E-003	1.000000000000000E+000	11	1.4042018E-001	1.8136465E-003	5.335291232165279E-005	0.0000000E+000	-1.0007188E+002	1.2868873E-002	1.1006214E-003	1.2915852E-002	4.8883753E+000	3.974629629390386E-007
2.8188096E+004	7.7177505E+001	7.1722775E+000	7.7510056E+001	-5.3093748E+000	2.033948229937232E+001	-5.9410986E-002	2.2916265E-003	7.8722215E-001	6.7405505E-003	1.000000000000000E+000	11	1.3023005E-001	1.6801698E-003	5.491272875171044E-005	0.0000000E+000	-1.0007188E+002	1.2846199E-002	1.1938259E-003	1.2901552E-002	5.3093748E+000	1.559816430057657E-006
2.5116910E+004	7.7230995E+001	7.8291430E+000	7.7626816E+001	-5.7884746E+000	2.079947253453429E+001	-5.9412122E-002	2.3000152E-003	8.0935621E-001	8.2327435E-003	1.000000000000000E+000	11	1.3850938E-001	1.7842980E-003	5.396997673703299E-005	0.0000000E+000	-1.0003180E+002	1.2816460E-002	1.2992439E-003	1.2882146E-002	5.7884746E+000	-9.427520146774505E-007
2.2389027E+004	7.7278236E+001	8.5789051E+000	7.7752968E+001	-6.3346510E+000	2.139548285622732E+001	-5.9389852E-002	2.3294634E-003	8.2861549E-001	1.0087484E-002	1.000000000000000E+000	11	1.2985641E-001	1.6701152E-003	5.656354316728701E-005	0.0000000E+000	-1.0006387E+002	1.2782720E-002	1.4190509E-003	1.2861245E-002	6.3346510E+000	2.593566430254013E-006
1.9948783E+004	7.7342735E+001	9.4316893E+000	7.7915695E+001	-6.9527006E+000	2.185447375799413E+001	-5.9394024E-002	2.3223811E-003	8.4589064E-001	1.2394908E-002	1.000000000000000E+000	11	1.3632873E-001	1.7496954E-003	5.664552358574939E-005	0.0000000E+000	-1.0003982E+002	1.2740007E-002	1.5536014E-003	1.2834385E-002	6.9527006E+000	8.198041846237933E-008
1.7786895E+004	7.7408073E+001	1.0390319E+001	7.8102295E+001	-7.6449943E+000	2.245049202631344E+001	-5.9386756E-002	2.3087731E-003	8.6117440E-001	1.5241275E-002	1.000000000000000E+000	11	1.2934068E-001	1.6560419E-003	5.542402993836731E-005	0.0000000E+000	-1.0009594E+002	1.2689914E-002	1.7033399E-003	1.2803721E-002	7.6449943E+000	-1.221493647382073E-006
1.5847686E+004	7.7494133E+001	1.1475060E+001	7.8339119E+001	-8.4229527E+000	2.290948866147664E+001	-5.9373096E-002	2.3891074E-003	8.7518388E-001	1.8778112E-002	1.000000000000000E+000	11	1.3413583E-001	1.7122459E-003	5.429296962566150E-005	0.0000000E+000	-1.0006387E+002	1.2627328E-002	1.8698106E-003	1.2765015E-002	8.4229527E+000	-1.131060312705811E-006
1.4121879E+004	7.7592911E+001	1.2700789E+001	7.8625504E+001	-9.2960176E+000	2.336847918989952E+001	-5.9398238E-002	2.1961967E-003	8.8735408E-001	2.3154290E-002	1.000000000000000E+000	11	1.3832568E-001	1.7592978E-003	5.568716652749410E-005	0.0000000E+000	-1.0006387E+002	1.2551486E-002	2.0544890E-003	1.2718519E-002	9.2960176E+000	1.394196901832601E-006
1.2590932E+004	7.7696007E+001	1.4059284E+001	7.8957794E+001	-1.0256824E+001	2.396549580493593E+001	-5.9382468E-002	2.3566729E-003	8.9908147E-001	2.8505946E-002	1.000000000000000E+000	11	1.2948126E-001	1.6398794E-003	5.289813953028028E-005	0.0000000E+000	-1.0007990E+002	1.2462601E-002	2.2551385E-003	1.2664994E-002	1.0256824E+001	-2.789026997213821E-006
1.1217711E+004	7.7822411E+001	1.5600772E+001	7.9370720E+001	-1.1335621E+001	2.442548638678272E+001	-5.9381761E-002	2.3143645E-003	9.0943110E-001	3.5135113E-002	1.000000000000000E+000	11	1.3226055E-001	1.6663644E-003	5.329389630071657E-005	0.0000000E+000	-1.0011999E+002	1.2353330E-002	2.4764265E-003	1.2599105E-002	1.1335621E+001	3.957567704362865E-007
1.0002229E+004	7.7969902E+001	1.7311419E+001	7.9868584E+001	-1.2518146E+001	2.488547627531807E+001	-5.9372406E-002	2.3138078E-003	9.1915900E-001	4.3182123E-002	1.000000000000000E+000	11	1.3455559E-001	1.6847124E-003	5.203422717641257E-005	0.0000000E+000	-1.0007990E+002	1.2222921E-002	2.7138179E-003	1.2520568E-002	1.2518146E+001	-1.259669124304002E-006
8.9149297E+003	7.8138321E+001	1.9232361E+001	8.0470375E+001	-1.3827484E+001	2.536792275158223E+001	-5.9363030E-002	2.4381257E-003	9.2825991E-001	5.3022809E-002	1.000000000000000E+000	11	1.3642053E-001	1.6952889E-003	5.169462203851274E-005	0.0000000E+000	-1.0007990E+002	1.2066797E-002	2.9700280E-003	1.2426933E-002	1.3827484E+001	-3.396051378998298E-007
7.9439976E+003	7.8332924E+001	2.1382820E+001	8.1198967E+001	-1.5268254E+001	2.589397986989934E+001	-5.9358258E-002	2.4491230E-003	9.3694919E-001	6.4974807E-002	1.000000000000000E+000	11	1.3792092E-001	1.6985551E-003	5.234985293154184E-005	0.0000000E+000	-1.0008792E+002	1.1880736E-002	3.2431274E-003	1.2315428E-002	1.5268254E+001	6.552308930291085E-007
7.0822334E+003	7.8547020E+001	2.3779051E+001	8.2067520E+001	-1.6842979E+001	2.647088384398376E+001	-5.9348643E-002	2.5825778E-003	9.4505131E-001	7.9341754E-002	1.000000000000000E+000	11	1.3908458E-001	1.6947578E-003	5.250080029759718E-005	0.0000000E+000	-1.0010395E+002	1.1662377E-002	3.5306273E-003	1.2185088E-002	1.6842979E+001	1.509473660553314E-007
6.3077344E+003	7.8791862E+001	2.6471493E+001	8.3119781E+001	-1.8570665E+001	2.710553616742254E+001	-5.9344653E-002	2.3631987E-003	9.5316547E-001	9.6675493E-002	1.000000000000000E+000	11	1.3997144E-001	1.6839727E-003	5.372373433418721E-005	0.0000000E+000	-1.0008792E+002	1.1404404E-002	3.8315069E-003	1.2030831E-002	1.8570665E+001	1.222934036590032E-006
5.6210552E+003	7.9067223E+001	2.9463022E+001	8.4378288E+001	-2.0437033E+001	2.780627089404152E+001	-5.9337795E-002	2.3891067E-003	9.6100348E-001	1.1717046E-001	1.000000000000000E+000	11	1.4061590E-001	1.6664938E-003	5.409598000871321E-005	0.0000000E+000	-1.0007188E+002	1.1105422E-002	4.1382420E-003	1.1851390E-002	2.0437033E+001	3.722456745260065E-007
5.0116035E+003	7.9369057E+001	3.2780537E+001	8.5872063E+001	-2.2441313E+001	2.878767206069460E+001	-5.9319455E-002	2.5538690E-003	9.6878493E-001	1.4117432E-001	1.000000000000000E+000	11	1.2928140E-001	1.5055118E-003	5.630653310433748E-005	0.0000000E+000	-1.0007188E+002	1.0763349E-002	4.4454145E-003	1.1645230E-002	2.2441313E+001	2.210553095624267E-006
4.4664292E+003	7.9731789E+001	3.6488373E+001	8.7684433E+001	-2.4590679E+001	2.954769847013085E+001	-5.9334774E-002	2.4321573E-003	9.7657406E-001	1.6910996E-001	1.000000000000000E+000	11	1.2952909E-001	1.4772187E-003	5.786111870757142E-005	0.0000000E+000	-1.0007990E+002	1.0370186E-002	4.7458010E-003	1.1404533E-002	2.4590679E+001	1.554585603233940E-006
3.9812742E+003	8.0152405E+001	4.0607960E+001	8.9852180E+001	-2.6868340E+001	3.030768999955762E+001	-5.9346050E-002	2.2972124E-003	9.8443455E-001	2.0107217E-001	1.000000000000000E+000	11	1.2964535E-001	1.4428737E-003	5.743236033509634E-005	0.0000000E+000	-1.0002379E+002	9.9279433E-003	5.0298371E-003	1.1129390E-002	2.6868340E+001	-4.287583724750781E-007
3.5465955E+003	8.0632759E+001	4.5223991E+001	9.2449181E+001	-2.9286489E+001	3.106793198231026E+001	-5.9334457E-002	2.4602991E-003	9.9229217E-001	2.3744950E-001	1.000000000000000E+000	11	1.2965207E-001	1.4024145E-003	5.798918649464840E-005	0.0000000E+000	-1.0009594E+002	9.4342064E-003	5.2913050E-003	1.0816754E-002	2.9286489E+001	5.568261595520512E-007
3.1610112E+003	8.1176025E+001	5.0330490E+001	9.5512856E+001	-3.1799603E+001	3.182768895175832E+001	-5.9330732E-002	2.5236686E-003	1.0003753E+000	2.7778041E-001	1.000000000000000E+000	11	1.2956387E-001	1.3565071E-003	5.828572143546080E-005	0.0000000E+000	-1.0007990E+002	8.8982405E-003	5.5170576E-003	1.0469795E-002	3.1799603E+001	2.965349408124026E-007
2.8172952E+003	8.1795090E+001	5.6016033E+001	9.9137444E+001	-3.4404655E+001	3.258794381452026E+001	-5.9323572E-002	2.4796780E-003	1.0084989E+000	3.2197687E-001	1.000000000000000E+000	11	1.2940952E-001	1.3053546E-003	5.790461596645279E-005	0.0000000E+000	-1.0008792E+002	8.3224615E-003	5.6995018E-003	1.0087006E-002	3.4404655E+001	-3.811054690080069E-007
2.5108032E+003	8.2505035E+001	6.2338512E+001	1.0340779E+002	-3.7073681E+001	3.334770321061660E+001	-5.9331290E-002	2.4025065E-003	1.0168363E+000	3.6953652E-001	1.000000000000000E+000	11	1.2920836E-001	1.2495031E-003	5.766365210603140E-005	0.0000000E+000	-1.0010395E+002	7.7156750E-003	5.8297496E-003	9.6704513E-003	3.7073681E+001	-2.409638604213926E-007
2.2378516E+003	8.3310760E+001	6.9354805E+001	1.0840098E+002	-3.9776814E+001	3.410792346004746E+001	-5.9330508E-002	2.3950508E-003	1.0254449E+000	4.1975802E-001	1.000000000000000E+000	11	1.2896973E-001	1.1897469E-003	5.861393410299368E-005	0.0000000E+000	-1.0007990E+002	7.0898114E-003	5.9021492E-003	9.2250090E-003	3.9776814E+001	9.502819969622832E-007
1.9956389E+003	8.4204697E+001	7.7119080E+001	1.1418311E+002	-4.2485088E+001	3.486768653614854E+001	-5.9339210E-002	2.3395058E-003	1.0341328E+000	4.7173300E-001	1.000000000000000E+000	11	1.2871277E-001	1.1272487E-003	5.837709994376281E-005	0.0000000E+000	-1.0003982E+002	6.4585130E-003	5.9150453E-003	8.7578623E-003	4.2485088E+001	-2.368341592308681E-007
1.7782927E+003	8.5213242E+001	8.5795166E+001	1.2092191E+002	-4.5194969E+001	3.562795585225103E+001	-5.9331421E-002	2.3482640E-003	1.0431675E+000	5.2513349E-001	1.000000000000000E+000	11	1.2843761E-001	1.0621534E-003	5.981508990224393E-005	0.0000000E+000	-1.0010395E+002	5.8276993E-003	5.8674961E-003	8.2697999E-003	4.5194969E+001	1.437989958481116E-006
1.5855076E+003	8.6339447E+001	9.5387802E+001	1.2865976E+002	-4.7850452E+001	3.638767868834839E+001	-5.9328064E-002	2.3299966E-003	1.0523469E+000	5.7844114E-001	1.000000000000000E+000	11	1.2817898E-001	9.9626323E-004	5.996346257888136E-005	0.0000000E+000	-1.0006387E+002	5.2158344E-003	5.7624527E-003	7.7724378E-003	4.7850452E+001	1.483726766374335E-007
1.4118373E+003	8.7625443E+001	1.0616511E+002	1.3765627E+002	-5.0464775E+001	3.714921720445273E+001	-5.9330545E-002	2.3641079E-003	1.0618268E+000	6.3157558E-001	1.000000000000000E+000	11	1.2791850E-001	9.2926022E-004	6.119054975422558E-005	0.0000000E+000	-1.0004784E+002	4.6242173E-003	5.6026028E-003	7.2644716E-003	5.0464775E+001	1.227087175344221E-006
1.2587914E+003	8.9026970E+001	1.1801142E+002	1.4782590E+002	-5.2969360E+001	3.790894604058121E+001	-5.9331626E-002	2.3318611E-003	1.0713769E+000	6.8279344E-001	1.000000000000000E+000	11	1.2767716E-001	8.6369953E-004	6.165648111680154E-005	0.0000000E+000	-1.0009594E+002	4.0739952E-003	5.4003634E-003	6.7647146E-003	5.2969360E+001	4.659313625759596E-007
1.1217948E+003	9.0597092E+001	1.3124446E+002	1.5947708E+002	-5.5382965E+001	3.866741791655659E+001	-5.9331011E-002	2.3784577E-003	1.0810001E+000	7.3213494E-001	1.000000000000000E+000	11	1.2746230E-001	7.9925155E-004	6.233566615054830E-005	0.0000000E+000	-1.0007990E+002	3.5621948E-003	5.1604123E-003	6.2704934E-003	5.5382965E+001	6.791850337467591E-007
1.0003201E+003	9.2324646E+001	1.4584192E+002	1.7260854E+002	-5.7664310E+001	3.942667163268925E+001	-5.9349760E-002	2.1391339E-003	1.0909348E+000	7.7882338E-001	1.000000000000000E+000	11	1.2726551E-001	7.3730719E-004	6.344022147125926E-005	0.0000000E+000	-1.0007188E+002	3.0987968E-003	4.8950585E-003	5.7934565E-003	5.7664310E+001	1.104555320710960E-006
8.9142657E+002	9.4262871E+001	1.6217628E+002	1.8758101E+002	-5.9833256E+001	4.018541470865603E+001	-5.9330039E-002	2.3866543E-003	1.1008983E+000	8.2289451E-001	1.000000000000000E+000	11	1.2709218E-001	6.7753223E-004	6.448714608152416E-005	0.0000000E+000	-1.0005585E+002	2.6789398E-003	4.6090307E-003	5.3310301E-003	5.9833256E+001	1.046924610264901E-006
7.9423773E+002	9.6418343E+001	1.8035980E+002	2.0451443E+002	-6.1871536E+001	4.094492181146052E+001	-5.9339825E-002	2.3161944E-003	1.1110405E+000	8.6409491E-001	1.000000000000000E+000	11	1.2693913E-001	6.2068546E-004	6.465690991867936E-005	0.0000000E+000	-1.0009594E+002	2.3052164E-003	4.3121297E-003	4.8896302E-003	6.1871536E+001	1.697638371551930E-007
7.0750946E+002	9.8797997E+001	2.0064713E+002	2.2365221E+002	-6.3784515E+001	4.170746240761946E+001	-5.9333880E-002	2.3465750E-003	1.1211272E+000	9.0234882E-001	1.000000000000000E+000	11	1.2680537E-001	5.6697568E-004	6.552606241314222E-005	0.0000000E+000	-1.0007990E+002	1.9751575E-003	4.0113130E-003	4.4712280E-003	6.3784515E+001	8.691524944628661E-007
6.3100964E+002	1.0140809E+002	2.2296359E+002	2.4494156E+002	-6.5543053E+001	4.246541119032190E+001	-5.9333377E-002	2.3741599E-003	1.1312281E+000	9.3733132E-001	1.000000000000000E+000	11	1.2669988E-001	5.1726575E-004	6.626406247874588E-005	0.0000000E+000	-1.0003982E+002	1.6902374E-003	3.7162851E-003	4.0826066E-003	6.5543053E+001	7.380000656036559E-007
5.6233929E+002	1.0434277E+002	2.4794960E+002	2.6901007E+002	-6.7177544E+001	4.322190479960409E+001	-5.9328381E-002	2.3488109E-003	1.1414536E+000	9.6972376E-001	1.000000000000000E+000	11	1.2660362E-001	4.7062780E-004	6.652724384909541E-005	0.0000000E+000	-1.0009594E+002	1.4418674E-003	3.4263073E-003	3.7173328E-003	6.7177544E+001	2.631813703495326E-007
5.0144415E+002	1.0754333E+002	2.7562305E+002	2.9586084E+002	-6.8685135E+001	4.422918140739785E+001	-5.9341483E-002	2.2079801E-004	1.1515480E+000	9.9939716E-001	1.000000000000000E+000	12	1.2984119E-001	4.3885899E-004	6.670111729405309E-005	0.0000000E+000	-1.0005585E+002	1.2285943E-003	3.1487674E-003	3.3799675E-003	6.8685135E+001	1.738734449576774E-007
4.4685895E+002	1.1112431E+002	3.0654138E+002	3.2606171E+002	-7.0073914E+001	4.498592301673489E+001	-5.9346423E-002	2.1317213E-004	1.1618781E+000	1.0269262E+000	1.000000000000000E+000	12	1.2914795E-001	3.9608439E-004	6.684774579712636E-005	0.0000000E+000	-1.0005585E+002	1.0452243E-003	2.8832979E-003	3.0669041E-003	7.0073914E+001	1.466285030732702E-007
3.9808920E+002	1.1514445E+002	3.4104901E+002	3.5996204E+002	-7.1344368E+001	4.574871289297153E+001	-5.9346423E-002	2.2379853E-004	1.1722573E+000	1.0523086E+000	1.000000000000000E+000	12	1.2858804E-001	3.5722667E-004	6.708826187692304E-005	0.0000000E+000	-1.0005585E+002	8.8864763E-004	2.6321062E-003	2.7780707E-003	7.1344368E+001	2.405160797966794E-007
3.5465955E+002	1.1955402E+002	3.7947043E+002	3.9785797E+002	-7.2512711E+001	4.650895300906268E+001	-5.9340812E-002	2.2575568E-004	1.1825801E+000	1.0757970E+000	1.000000000000000E+000	12	1.2812389E-001	3.2203426E-004	6.704067397326838E-005	0.0000000E+000	-1.0011197E+002	7.5528008E-004	2.3972967E-003	2.5134597E-003	7.2512711E+001	-4.758790365465401E-008
3.1631586E+002	1.2446470E+002	4.2179224E+002	4.3977283E+002	-7.3559441E+001	4.726589469835744E+001	-5.9339825E-002	2.1093259E-004	1.1928905E+000	1.0973394E+000	1.000000000000000E+000	12	1.2775156E-001	2.9049444E-004	6.723798508626674E-005	0.0000000E+000	-1.0006387E+002	6.4356066E-004	2.1809302E-003	2.2739014E-003	7.3559441E+001	1.973111129983582E-007
2.8189429E+002	1.2995241E+002	4.6917966E+002	4.8684409E+002	-7.4518440E+001	4.802142606754205E+001	-5.9343778E-002	2.0021097E-004	1.2033575E+000	1.1176176E+000	1.000000000000000E+000	12	1.2744834E-001	2.6178471E-004	6.707491039038683E-005	0.0000000E+000	-1.0006387E+002	5.4828275E-004	1.9795175E-003	2.0540457E-003	7.4518440E+001	-1.630746958799118E-007
2.5104436E+002	1.3608548E+002	5.2230750E+002	5.3974475E+002	-7.5396454E+001	4.877792975681950E+001	-5.9350189E-002	1.8691657E-004	1.2137895E+000	1.1366298E+000	1.000000000000000E+000	12	1.2719591E-001	2.3565936E-004	6.696373705076339E-005	0.0000000E+000	-1.0004784E+002	4.6712681E-004	1.7928726E-003	1.8527276E-003	7.5396454E+001	-1.111733396234432E-007
2.2392513E+002	1.4289777E+002	5.8059467E+002	5.9792133E+002	-7.6173012E+001	4.954070629974740E+001	-5.9342846E-002	2.1562805E-004	1.2241771E+000	1.1542563E+000	1.000000000000000E+000	12	1.2700537E-001	2.1241151E-004	6.690436919638402E-005	0.0000000E+000	-1.0008792E+002	3.9970287E-004	1.6239960E-003	1.6724608E-003	7.6173012E+001	-5.936785437937026E-008
1.9955299E+002	1.5040392E+002	6.4594244E+002	6.6322168E+002	-7.6892563E+001	5.030220614917926E+001	-5.9351958E-002	2.0652938E-004	1.2347187E+000	1.1712193E+000	1.000000000000000E+000	12	1.2684208E-001	1.9125141E-004	6.714802871109795E-005	0.0000000E+000	-1.0007188E+002	3.4193351E-004	1.4685083E-003	1.5077915E-003	7.6892563E+001	2.436595147139363E-007
1.7778128E+002	1.5885677E+002	7.1886157E+002	7.3620477E+002	-7.7538826E+001	5.107023687902256E+001	-5.9352145E-002	2.1719359E-004	1.2453426E+000	1.1873592E+000	1.000000000000000E+000	12	1.2670983E-001	1.7211221E-004	6.737070176040449E-005	0.0000000E+000	-1.0008792E+002	2.9309507E-004	1.3263192E-003	1.3583178E-003	7.7538826E+001	2.226730493065399E-007
1.5842838E+002	1.6835443E+002	7.9969672E+002	8.1722583E+002	-7.8111534E+001	5.183673424879089E+001	-5.9342325E-002	2.0514936E-004	1.2562089E+000	1.2028967E+000	1.000000000000000E+000	12	1.2660286E-001	1.5491784E-004	6.729814596977101E-005	0.0000000E+000	-1.0005585E+002	2.5208111E-004	1.1974052E-003	1.2236519E-003	7.8111534E+001	-7.255579063348227E-008
1.4131134E+002	1.7894069E+002	8.8913062E+002	9.0695813E+002	-7.8621025E+001	5.258990460456698E+001	-5.9344038E-002	2.2368097E-004	1.2667111E+000	1.2174026E+000	1.000000000000000E+000	12	1.2652096E-001	1.3950033E-004	6.745766862056553E-005	0.0000000E+000	-1.0005585E+002	2.1753773E-004	1.0809139E-003	1.1025867E-003	7.8621025E+001	1.595226507945200E-007
1.2584569E+002	1.9072523E+002	9.8997827E+002	1.0081830E+003	-7.9095230E+001	5.334542909372249E+001	-5.9348196E-002	2.1351820E-004	1.2774858E+000	1.2317673E+000	1.000000000000000E+000	12	1.2645306E-001	1.2542668E-004	6.741821938080849E-005	0.0000000E+000	-1.0002379E+002	1.8764171E-004	9.7397284E-004	9.9188334E-004	7.9095230E+001	-3.944923975703865E-008
1.1218996E+002	2.0382249E+002	1.1009275E+003	1.1196361E+003	-7.9511185E+001	5.409085270253127E+001	-5.9350133E-002	1.9489284E-004	1.2885683E+000	1.2458652E+000	1.000000000000000E+000	12	1.2639464E-001	1.1288904E-004	6.738881155557890E-005	0.0000000E+000	-1.0007990E+002	1.6259174E-004	8.7822322E-004	8.9314731E-004	7.9511185E+001	-2.940782522959675E-008
1.0003201E+002	2.1861392E+002	1.2243964E+003	1.2437598E+003	-7.9876610E+001	5.485067575195717E+001	-5.9351735E-002	1.8657751E-004	1.2994486E+000	1.2593027E+000	1.000000000000000E+000	12	1.2635714E-001	1.0159288E-004	6.748076045326302E-005	0.0000000E+000	-1.0006387E+002	1.4132040E-004	7.9149654E-004	8.0401381E-004	7.9876610E+001	9.194889768412453E-008
8.9115974E+001	2.3509065E+002	1.3625024E+003	1.3826354E+003	-8.0210388E+001	5.561775418838079E+001	-5.9349760E-002	2.1032992E-004	1.3107723E+000	1.2728772E+000	1.000000000000000E+000	12	1.2631601E-001	9.1358874E-005	6.760562079371549E-005	0.0000000E+000	-1.0007990E+002	1.2297591E-004	7.1272498E-004	7.2325650E-004	8.0210388E+001	1.248603404524723E-007
7.9415527E+001	2.5342970E+002	1.5161351E+003	1.5371703E+003	-8.0510452E+001	5.638223569132970E+001	-5.9347842E-002	2.1355510E-004	1.3218336E+000	1.2859043E+000	1.000000000000000E+000	12	1.2628819E-001	8.2156279E-005	6.755584709380270E-005	0.0000000E+000	-1.0007990E+002	1.0725400E-004	6.4164371E-004	6.5054599E-004	8.0510452E+001	-4.977369991279778E-008