EC-Lab ASCII FILE
Nb header lines : 60                          

Potentio Electrochemical Impedance Spectroscopy

Run on channel : 2 (SN 20919)
User : 
CE vs. WE compliance from -10 V to 10 V
Electrode connection : standard
Ewe ctrl range : min = -10.00 V, max = 10.00 V
Acquisition started on : 02/07/2020 11:51:25
Technique started on : 02/07/2020 11:51:26
Saved on :
	File : DE_57_6_60.mpr
	Directory : P:\Chemistry\Data\VMP3\Kyler\DOE\DE_57\60c\
	Host : 10.0.4.99
Device : VMP3
Address : USB
EC-Lab for windows v11.33 (software)
Internet server v11.32 (firmware)
Command interpretor v11.33 (firmware)
Electrode material : 
Initial state : 
Electrolyte : 
Comments : 
Electrode surface area : 0.001 cm²
Characteristic mass : 0.001 g
Equivalent Weight : 0.000 g/eq.
Density : 0.000 g/cm3
Record Analogic IN 1
Cycle Definition : Charge/Discharge alternance
Mode                Single sine         
E (V)               0.0000              
vs.                 Eoc                 
tE (h:m:s)          0:00:0.0000         
record              0                   
dI                  1.000               
unit dI             mA                  
dt (s)              0.000               
fi                  1.000               
unit fi             MHz                 
ff                  1.000               
unit ff             Hz                  
Nd                  20                  
Points              per decade          
spacing             Logarithmic         
Va (mV)             128.0               
pw                  0.50                
Na                  3                   
corr                0                   
E range min (V)     -10.000             
E range max (V)     10.000              
I Range             Auto                
Bandwidth           5                   
nc cycles           0                   
goto Ns'            0                   
nr cycles           0                   
inc. cycle          1                   

freq/Hz	Re(Z)/Ohm	-Im(Z)/Ohm	|Z|/Ohm	Phase(Z)/deg	time/s	<Ewe>/V	<I>/mA	Cs/µF	Cp/µF	cycle number	I Range	|Ewe|/V	|I|/A	(Q-Qo)/mA.h	Analog IN 1/V	Re(Y)/Ohm-1	Im(Y)/Ohm-1	|Y|/Ohm-1	Phase(Y)/deg	dq/mA.h	
1.0000186E+006	5.4018948E+001	1.6614948E+001	5.6516399E+001	-1.7096657E+001	1.951495399320265E+000	-4.6959887E-003	2.8734608E-003	9.5788436E-003	8.2786987E-004	1.000000000000000E+000	11	1.0384248E-003	1.8373867E-005	1.006693649320773E-006	-1.5796525E-003	1.6912086E-002	5.2017570E-003	1.7693980E-002	1.7096657E+001	1.006693649320773E-006
8.9124669E+005	4.9848602E+001	1.5254411E+001	5.2130417E+001	-1.7014885E+001	2.547478654276347E+000	-4.2787115E-003	2.6021248E-003	1.1706493E-002	1.0023866E-003	1.000000000000000E+000	11	1.6414318E-003	3.1487027E-005	1.247385209486513E-006	-1.4994717E-003	1.8343011E-002	5.6132325E-003	1.9182660E-002	1.7014885E+001	2.406915601657400E-007
7.9433269E+005	4.9272034E+001	1.1803062E+001	5.0666019E+001	-1.3471293E+001	3.143475215969374E+000	-3.9320341E-003	2.6591795E-003	1.6975516E-002	9.2125282E-004	1.000000000000000E+000	11	2.5513556E-003	5.0356346E-005	1.470196831485181E-006	-1.2589293E-003	1.9194063E-002	4.5979172E-003	1.9737095E-002	1.3471293E+001	2.228116219986683E-007
7.0794981E+005	5.1477798E+001	1.0368732E+001	5.2511658E+001	-1.1388222E+001	3.738479937514057E+000	-3.6427383E-003	2.7047128E-003	2.1681631E-002	8.4534084E-004	1.000000000000000E+000	11	3.8838445E-003	7.3961564E-005	2.144901996015203E-006	-1.6598334E-003	1.8668460E-002	3.7602282E-003	1.9043390E-002	1.1388222E+001	6.747051645300217E-007
6.3095681E+005	5.2695999E+001	8.9094400E+000	5.3443863E+001	-9.5963831E+000	4.334494552487740E+000	-3.3893110E-003	2.7954064E-003	2.8311972E-002	7.8681973E-004	1.000000000000000E+000	11	5.5992589E-003	1.0476898E-004	2.435838813966257E-006	-1.3391101E-003	1.8449388E-002	3.1192824E-003	1.8711222E-002	9.5963831E+000	2.909368179510542E-007
5.6234225E+005	5.3529106E+001	9.2270441E+000	5.4318539E+001	-9.7802114E+000	4.930493700812804E+000	-3.1891642E-003	2.9020831E-003	3.0673038E-002	8.8508683E-004	1.000000000000000E+000	11	7.8075398E-003	1.4373619E-004	2.878350413354282E-006	-1.3391101E-003	1.8142363E-002	3.1272776E-003	1.8409921E-002	9.7802114E+000	4.425115993880252E-007
5.0120619E+005	5.4552200E+001	8.4584875E+000	5.5204063E+001	-8.8137035E+000	5.526488822448300E+000	-3.0318580E-003	2.8571095E-003	3.7541445E-002	8.8136207E-004	1.000000000000000E+000	11	1.0460013E-002	1.8947903E-004	3.759422691128647E-006	-1.6598334E-003	1.7900705E-002	2.7755599E-003	1.8114608E-002	8.8137035E+000	8.810722777743648E-007
4.4668572E+005	5.5791630E+001	7.9624553E+000	5.6356956E+001	-8.1222744E+000	6.121492130710976E+000	-2.9002787E-003	3.0035584E-003	4.4747736E-002	8.9324376E-004	1.000000000000000E+000	11	1.3689038E-002	2.4289882E-004	4.686674736789427E-006	-1.5796525E-003	1.7566044E-002	2.5069860E-003	1.7744038E-002	8.1222744E+000	9.272520456607806E-007
3.9810347E+005	5.6602554E+001	7.2382731E+000	5.7063488E+001	-7.2873707E+000	6.717476239049574E+000	-2.8629187E-003	2.8149255E-003	5.5231802E-002	8.8867411E-004	1.000000000000000E+000	11	1.7399160E-002	3.0490881E-004	4.696664987561841E-006	-1.8201950E-003	1.7382788E-002	2.2228921E-003	1.7524341E-002	7.2873707E+000	9.990250772413480E-009
3.5480997E+005	5.7482132E+001	6.7687812E+000	5.7879288E+001	-6.7159100E+000	7.313491627370240E+000	-2.8522923E-003	2.9682510E-003	6.6269524E-002	9.0633438E-004	1.000000000000000E+000	11	2.1718280E-002	3.7523406E-004	5.557602013391766E-006	-1.8201950E-003	1.7158784E-002	2.0205243E-003	1.7277338E-002	6.7159100E+000	8.609370258299250E-007
3.1622997E+005	5.8001072E+001	6.6721401E+000	5.8383575E+001	-6.5621629E+000	7.908477762277471E+000	-2.8679520E-003	2.7959726E-003	7.5431362E-002	9.8514662E-004	1.000000000000000E+000	11	2.6652941E-002	4.5651439E-004	6.049165815441584E-006	-1.5796525E-003	1.7015889E-002	1.9574189E-003	1.7128104E-002	6.5621629E+000	4.915638020498185E-007
2.8183453E+005	5.8460220E+001	6.1449161E+000	5.8782288E+001	-6.0004845E+000	8.504486670572078E+000	-2.8801067E-003	2.8879698E-003	9.1898829E-002	1.0042663E-003	1.000000000000000E+000	11	3.2295283E-002	5.4940500E-004	6.183678504820111E-006	-1.2589293E-003	1.6918719E-002	1.7783737E-003	1.7011927E-002	6.0004845E+000	1.345126893785271E-007
2.5118764E+005	5.8860031E+001	5.7664881E+000	5.9141827E+001	-5.5953832E+000	9.100496698898496E+000	-2.8870977E-003	2.9732764E-003	1.0987794E-001	1.0445850E-003	1.000000000000000E+000	11	3.8690671E-002	6.5420149E-004	7.615626897239256E-006	-1.2589293E-003	1.6827943E-002	1.6486252E-003	1.6908508E-002	5.5953832E+000	1.431948392419144E-006
2.2387173E+005	5.9179104E+001	5.3979506E+000	5.9424778E+001	-5.2117434E+000	9.696483500505565E+000	-2.8981152E-003	2.6588279E-003	1.3170187E-001	1.0867125E-003	1.000000000000000E+000	11	4.5842156E-002	7.7143166E-004	8.938859861845332E-006	-1.4994717E-003	1.6758427E-002	1.5285996E-003	1.6827997E-002	5.2117434E+000	1.323232964606077E-006
1.9954350E+005	5.9576702E+001	4.8763881E+000	5.9775936E+001	-4.6792622E+000	1.029349590223865E+001	-2.8759863E-003	3.0364711E-003	1.6356272E-001	1.0884990E-003	1.000000000000000E+000	11	5.3798992E-002	9.0001087E-004	1.034675279438509E-005	-1.7400142E-003	1.6673382E-002	1.3647261E-003	1.6729141E-002	4.6792622E+000	1.407892932539753E-006
1.7783180E+005	5.9832245E+001	4.8545132E+000	6.0028858E+001	-4.6385550E+000	1.088849755717092E+001	-2.8747930E-003	2.9704971E-003	1.8435930E-001	1.2056916E-003	1.000000000000000E+000	11	6.2415022E-002	1.0397503E-003	9.175829549226263E-006	-1.0985675E-003	1.6604092E-002	1.3471795E-003	1.6658654E-002	4.6385550E+000	-1.170923245158822E-006
1.5848613E+005	5.9822571E+001	4.6872554E+000	6.0005920E+001	-4.4801211E+000	1.148448371878476E+001	-2.8580700E-003	2.8270278E-003	2.1424478E-001	1.3072520E-003	1.000000000000000E+000	11	7.1598351E-002	1.1931881E-003	9.875466302215095E-006	-1.5796525E-003	1.6614104E-002	1.3017585E-003	1.6665023E-002	4.4801211E+000	6.996367529888317E-007
1.4125594E+005	6.0244015E+001	4.5575571E+000	6.0416161E+001	-4.3262777E+000	1.208049460043549E+001	-2.8506687E-003	3.0069347E-003	2.4721870E-001	1.4068225E-003	1.000000000000000E+000	11	8.1682898E-002	1.3520041E-003	7.589644399668840E-006	-1.2589293E-003	1.6504701E-002	1.2486074E-003	1.6551863E-002	4.3262777E+000	-2.285821902546255E-006
1.2590930E+005	6.0195736E+001	4.4550586E+000	6.0360371E+001	-4.2327175E+000	1.267649580209400E+001	-2.8485060E-003	2.7467553E-003	2.8373241E-001	1.5456529E-003	1.000000000000000E+000	11	9.2207879E-002	1.5276228E-003	8.947034746825618E-006	-1.4192909E-003	1.6521974E-002	1.2227837E-003	1.6567161E-002	4.2327175E+000	1.357390347156778E-006
1.1220494E+005	6.0444366E+001	4.0164213E+000	6.0577663E+001	-3.8016145E+000	1.327149689701037E+001	-2.8047145E-003	3.4334636E-003	3.5315785E-001	1.5524670E-003	1.000000000000000E+000	11	1.0392862E-001	1.7156261E-003	8.180031809571017E-006	-1.4994717E-003	1.6471412E-002	1.0944961E-003	1.6507735E-002	3.8016145E+000	-7.670029372546007E-007
1.0000371E+005	6.0559052E+001	3.8972089E+000	6.0684322E+001	-3.6821272E+000	1.373148505217978E+001	-2.8438265E-003	2.9866907E-003	4.0836668E-001	1.6842427E-003	1.000000000000000E+000	11	1.1654141E-001	1.9204533E-003	1.004479630060248E-005	-1.0985675E-003	1.6444704E-002	1.0582802E-003	1.6478721E-002	3.6821272E+000	1.864764491031465E-006
8.9129305E+004	6.0685211E+001	3.8237731E+000	6.0805561E+001	-3.6054387E+000	1.419148534067790E+001	-2.8451493E-003	2.7595866E-003	4.6698990E-001	1.8467373E-003	1.000000000000000E+000	11	1.3031766E-001	2.1431865E-003	9.275339950849431E-006	-1.4994717E-003	1.6413314E-002	1.0342024E-003	1.6445864E-002	3.6054387E+000	-7.694563497530512E-007
7.9433273E+004	6.0802414E+001	3.7815578E+000	6.0919895E+001	-3.5588815E+000	1.478749584898469E+001	-2.7968651E-003	3.0439333E-003	5.2984267E-001	2.0415976E-003	1.000000000000000E+000	11	1.2949272E-001	2.1256227E-003	1.153569502742094E-005	-1.7400142E-003	1.6383342E-002	1.0189490E-003	1.6414998E-002	3.5588815E+000	2.260355076571512E-006
7.0794977E+004	6.0902359E+001	3.7730381E+000	6.1019123E+001	-3.5450716E+000	1.538347734397394E+001	-2.7701503E-003	2.8757434E-003	5.9583563E-001	2.2781219E-003	1.000000000000000E+000	11	1.2963603E-001	2.1245149E-003	1.452986597828244E-005	-1.5796525E-003	1.6356945E-002	1.0133495E-003	1.6388305E-002	3.5450716E+000	2.994170950861493E-006
6.3093828E+004	6.1018543E+001	3.8057132E+000	6.1137108E+001	-3.5689023E+000	1.597947723892867E+001	-2.7409187E-003	2.9419011E-003	6.6282243E-001	2.5683814E-003	1.000000000000000E+000	11	1.2961444E-001	2.1200618E-003	1.897678844051117E-005	-1.4192909E-003	1.6324958E-002	1.0181840E-003	1.6356679E-002	3.5689023E+000	4.446922462228739E-006
5.6237012E+004	6.1082718E+001	3.8765178E+000	6.1205605E+001	-3.6313157E+000	1.657547838726896E+001	-2.7217169E-003	2.9223878E-003	7.3005587E-001	2.9285813E-003	1.000000000000000E+000	11	1.2954158E-001	2.1164985E-003	1.486358083591201E-005	-1.3391101E-003	1.6305570E-002	1.0348071E-003	1.6338373E-002	3.6313157E+000	-4.113207604599161E-006
5.0122477E+004	6.1211281E+001	3.9505663E+000	6.1338634E+001	-3.6927388E+000	1.717047318883124E+001	-2.6851401E-003	2.7817022E-003	8.0376345E-001	3.3341011E-003	1.000000000000000E+000	11	1.2952742E-001	2.1116775E-003	1.688026190158821E-005	-1.1787484E-003	1.6269092E-002	1.0500045E-003	1.6302940E-002	3.6927388E+000	2.016681065676192E-006
4.4666715E+004	6.1286076E+001	4.1038480E+000	6.1423325E+001	-3.8309302E+000	1.776648833716172E+001	-2.6759307E-003	2.7644178E-003	8.6825013E-001	3.8757946E-003	1.000000000000000E+000	11	1.2940623E-001	2.1067930E-003	1.431837266892156E-005	-1.4994717E-003	1.6244084E-002	1.0877389E-003	1.6280461E-002	3.8309302E+000	-2.561889232666647E-006
3.9814063E+004	6.1304516E+001	4.3170958E+000	6.1456333E+001	-4.0281487E+000	1.836348513883422E+001	-2.6745885E-003	2.7066185E-003	9.2595941E-001	4.5692199E-003	1.000000000000000E+000	11	1.2940529E-001	2.1056461E-003	1.424568183100847E-005	-1.0985675E-003	1.6231520E-002	1.1430320E-003	1.6271716E-002	4.0281487E+000	-7.269083791308867E-008
3.5480996E+004	6.1420376E+001	4.5568085E+000	6.1589180E+001	-4.2430291E+000	1.895948938050424E+001	-2.6336866E-003	3.1019181E-003	9.8438174E-001	5.3886040E-003	1.000000000000000E+000	11	1.2925592E-001	2.0986791E-003	1.111251951934214E-005	-1.3391101E-003	1.6192116E-002	1.2013012E-003	1.6236618E-002	4.2430291E+000	-3.133162311666336E-006
3.1621143E+004	6.1510220E+001	4.8455839E+000	6.1700783E+001	-4.5042815E+000	1.941849310896941E+001	-2.6433242E-003	3.4780737E-003	1.0387151E+000	6.4063012E-003	1.000000000000000E+000	11	1.4019264E-001	2.2721372E-003	1.124944132654087E-005	-1.6598334E-003	1.6157193E-002	1.2728135E-003	1.6207250E-002	4.5042815E+000	1.369218071987338E-007
2.8188096E+004	6.1566162E+001	5.1530647E+000	6.1781441E+001	-4.7844834E+000	2.001448047059239E+001	-2.6315425E-003	2.9536106E-003	1.0956928E+000	7.6226140E-003	1.000000000000000E+000	11	1.3034950E-001	2.1098489E-003	9.474013006718855E-006	-1.8201950E-003	1.6129689E-002	1.3500490E-003	1.6186090E-002	4.7844834E+000	-1.775428319822014E-006
2.5116910E+004	6.1672497E+001	5.5531631E+000	6.1922005E+001	-5.1451960E+000	2.047447971915244E+001	-2.6181752E-003	2.8287272E-003	1.1410732E+000	9.1770757E-003	1.000000000000000E+000	11	1.3979492E-001	2.2575967E-003	9.371463076305290E-006	-1.3391101E-003	1.6084276E-002	1.4482730E-003	1.6149348E-002	5.1451960E+000	-1.025499304135646E-007
2.2389027E+004	6.1685608E+001	5.9550223E+000	6.1972385E+001	-5.5141482E+000	2.107048500076053E+001	-2.5780571E-003	5.1614703E-003	1.1937174E+000	1.1022291E-002	1.000000000000000E+000	11	1.3011390E-001	2.0995464E-003	1.192194956226255E-005	-1.2589293E-003	1.6061550E-002	1.5505543E-003	1.6136220E-002	5.5141482E+000	2.550486485957259E-006
1.9948783E+004	6.1819405E+001	6.5028625E+000	6.2160484E+001	-6.0049334E+000	2.153048496929114E+001	-2.6035409E-003	2.9783300E-003	1.2268717E+000	1.3427016E-002	1.000000000000000E+000	11	1.3774937E-001	2.2160280E-003	1.381567671287000E-005	-1.4994717E-003	1.5999118E-002	1.6829678E-003	1.6087390E-002	6.0049334E+000	1.893727150607446E-006
1.7786895E+004	6.1956203E+001	7.1088109E+000	6.2362701E+001	-6.5454531E+000	2.212648603759590E+001	-2.5977064E-003	3.3959260E-003	1.2587024E+000	1.6355624E-002	1.000000000000000E+000	11	1.2973717E-001	2.0803649E-003	1.660420718004267E-005	-1.3391101E-003	1.5930703E-002	1.8278775E-003	1.6035225E-002	6.5454531E+000	2.788530467172676E-006
1.5847686E+004	6.1981243E+001	7.7949142E+000	6.2469475E+001	-7.1680264E+000	2.258647960607777E+001	-2.5885524E-003	2.7012315E-003	1.2883769E+000	2.0059953E-002	1.000000000000000E+000	11	1.3548419E-001	2.1688063E-003	1.852716401600305E-005	-1.1787484E-003	1.5882708E-002	1.9974487E-003	1.6007818E-002	7.1680264E+000	1.922956835960375E-006
1.4121879E+004	6.2109306E+001	8.4460497E+000	6.2680950E+001	-7.7439718E+000	2.304647208130336E+001	-2.5892234E-003	3.1322106E-003	1.3343630E+000	2.4227586E-002	1.000000000000000E+000	11	1.4071307E-001	2.2449095E-003	1.815906757256340E-005	-1.0985675E-003	1.5808314E-002	2.1497230E-003	1.5953811E-002	7.7439718E+000	-3.680964434396506E-007
1.2590932E+004	6.2225674E+001	9.3539743E+000	6.2924809E+001	-8.5488863E+000	2.364148277623462E+001	-2.5756522E-003	2.9982128E-003	1.3513446E+000	2.9861707E-002	1.000000000000000E+000	11	1.2971129E-001	2.0613696E-003	1.794019721607846E-005	-1.3391101E-003	1.5715415E-002	2.3623945E-003	1.5891984E-002	8.5488863E+000	-2.188703564849392E-007
1.1217711E+004	6.2300896E+001	1.0318764E+001	6.3149651E+001	-9.4044018E+000	2.410047986466088E+001	-2.5735640E-003	3.0487629E-003	1.3749542E+000	3.6711462E-002	1.000000000000000E+000	11	1.3317928E-001	2.1089471E-003	1.613485926977268E-005	-1.5796525E-003	1.5622566E-002	2.5875322E-003	1.5835401E-002	9.4044018E+000	-1.805337946305774E-006
1.0002229E+004	6.2525074E+001	1.1378825E+001	6.3552048E+001	-1.0314276E+001	2.455948348648963E+001	-2.5826613E-003	3.4228743E-003	1.3983822E+000	4.4829268E-002	1.000000000000000E+000	11	1.3618329E-001	2.1428624E-003	1.484661052046188E-005	-1.7400142E-003	1.5480862E-002	2.8173341E-003	1.5735134E-002	1.0314276E+001	-1.288248749310799E-006
8.9149297E+003	6.2652397E+001	1.2559134E+001	6.3898785E+001	-1.1335127E+001	2.504190614941763E+001	-2.5686047E-003	3.0859343E-003	1.4214859E+000	5.4913193E-002	1.000000000000000E+000	11	1.3863435E-001	2.1695930E-003	1.642973644421242E-005	-1.1787484E-003	1.5344492E-002	3.0759163E-003	1.5649751E-002	1.1335127E+001	1.583125923750532E-006
7.9439976E+003	6.2806686E+001	1.3808975E+001	6.4306824E+001	-1.2400025E+001	2.556799329441856E+001	-2.5517144E-003	3.4433189E-003	1.4508402E+000	6.6900343E-002	1.000000000000000E+000	11	1.4059463E-001	2.1863098E-003	1.568538894103646E-005	-1.6598334E-003	1.5187692E-002	3.3392375E-003	1.5550449E-002	1.2400025E+001	-7.443475031759591E-007
7.0822334E+003	6.3074459E+001	1.5438583E+001	6.4936409E+001	-1.3753737E+001	2.631388684984995E+001	-2.5305557E-003	3.5042735E-003	1.4556013E+000	8.2277447E-002	1.000000000000000E+000	11	1.2952891E-001	1.9947039E-003	2.089225888812669E-005	-1.9003758E-003	1.4958120E-002	3.6612628E-003	1.5399681E-002	1.3753737E+001	5.206869947090230E-006
6.3077344E+003	6.3204174E+001	1.6988138E+001	6.5447418E+001	-1.5044506E+001	2.694853365331073E+001	-2.5639259E-003	3.9889617E-003	1.4852548E+000	1.0007083E-001	1.000000000000000E+000	11	1.3064170E-001	1.9961323E-003	1.918354911387238E-005	-1.3391101E-003	1.4755731E-002	3.9660735E-003	1.5279441E-002	1.5044506E+001	-1.708709774254305E-006
5.6210552E+003	6.3468071E+001	1.8789557E+001	6.6190964E+001	-1.6491249E+001	2.764928024660912E+001	-2.5164245E-003	3.4304918E-003	1.5069045E+000	1.2142871E-001	1.000000000000000E+000	11	1.3153568E-001	1.9872151E-003	1.941015911215153E-005	-1.4192909E-003	1.4486314E-002	4.2886352E-003	1.5107802E-002	1.6491249E+001	2.266099982791470E-007
5.0116035E+003	6.3686123E+001	2.0894764E+001	6.7026215E+001	-1.8164133E+001	2.840967950940831E+001	-2.5084082E-003	3.2113797E-003	1.5198683E+000	1.4770374E-001	1.000000000000000E+000	11	1.3218638E-001	1.9721594E-003	1.834757898228741E-005	-1.3391101E-003	1.4176056E-002	4.6510184E-003	1.4919535E-002	1.8164133E+001	-1.062580129864121E-006
4.4664292E+003	6.3872116E+001	2.3230087E+001	6.7965317E+001	-1.9986166E+001	2.916970202550874E+001	-2.5114096E-003	3.7538644E-003	1.5339416E+000	1.7919910E-001	1.000000000000000E+000	11	1.3260891E-001	1.9511260E-003	1.804553958510223E-005	-1.1787484E-003	1.3827275E-002	5.0289361E-003	1.4713387E-002	1.9986166E+001	-3.020393971851753E-007
3.9812742E+003	6.4200264E+001	2.5754925E+001	6.9173622E+001	-2.1858950E+001	2.992970070160663E+001	-2.5168532E-003	3.7113058E-003	1.5521646E+000	2.1516781E-001	1.000000000000000E+000	11	1.3293049E-001	1.9216933E-003	1.792383396334157E-005	-1.0183867E-003	1.3417011E-002	5.3824405E-003	1.4456377E-002	2.1858950E+001	-1.217056217606618E-007
3.5465955E+003	6.4487679E+001	2.8656973E+001	7.0568283E+001	-2.3959360E+001	3.068992311102920E+001	-2.5259135E-003	3.1810838E-003	1.5659511E+000	2.5823772E-001	1.000000000000000E+000	11	1.3309956E-001	1.8861102E-003	1.709965789207167E-005	-1.2589293E-003	1.2949638E-002	5.7545477E-003	1.4170672E-002	2.3959360E+001	-8.241760712699034E-007
3.1610112E+003	6.4917694E+001	3.1879478E+001	7.2322945E+001	-2.6154516E+001	3.144968080046965E+001	-2.5418156E-003	4.1630990E-003	1.5793664E+000	3.0686906E-001	1.000000000000000E+000	11	1.3320355E-001	1.8417882E-003	1.672510754142746E-005	-1.0985675E-003	1.2411118E-002	6.0947938E-003	1.3826870E-002	2.6154516E+001	-3.745503506442112E-007
2.8172952E+003	6.5166016E+001	3.5358055E+001	7.4140419E+001	-2.8483562E+001	3.220993190322770E+001	-2.4875470E-003	2.6718641E-003	1.5977154E+000	3.6338422E-001	1.000000000000000E+000	11	1.3309084E-001	1.7951186E-003	1.671551450581562E-005	-1.4994717E-003	1.1855260E-002	6.4324779E-003	1.3487919E-002	2.8483562E+001	-9.593035611841670E-009
2.5108032E+003	6.5639519E+001	3.9312244E+001	7.6511429E+001	-3.0917866E+001	3.296968777933216E+001	-2.5261000E-003	4.1885599E-003	1.6124253E+000	4.2567945E-001	1.000000000000000E+000	11	1.3301343E-001	1.7384778E-003	1.902704626104161E-005	-1.4994717E-003	1.1212765E-002	6.7154514E-003	1.3069943E-002	3.0917866E+001	2.311531755225992E-006
2.2378516E+003	6.6102898E+001	4.3854462E+001	7.9327217E+001	-3.3561378E+001	3.372993162876810E+001	-2.4972598E-003	2.9142078E-003	1.6217171E+000	4.9563071E-001	1.000000000000000E+000	11	1.3286665E-001	1.6749188E-003	2.101946920050735E-005	-1.4192909E-003	1.0504517E-002	6.9689821E-003	1.2606014E-002	3.3561378E+001	1.992422939465741E-006
1.9956389E+003	6.6425407E+001	4.8634560E+001	8.2326515E+001	-3.6210396E+001	3.448970470486529E+001	-2.5092843E-003	3.5282446E-003	1.6398088E+000	5.7227361E-001	1.000000000000000E+000	11	1.3261771E-001	1.6108748E-003	2.108350539101715E-005	-1.4994717E-003	9.8006474E-003	7.1757208E-003	1.2146755E-002	3.6210396E+001	6.403619050979856E-008
1.7782927E+003	6.6945869E+001	5.4184902E+001	8.6126381E+001	-3.8986145E+001	3.524996778095374E+001	-2.5197989E-003	4.5795767E-003	1.6517282E+000	6.5376669E-001	1.000000000000000E+000	11	1.3239147E-001	1.5371768E-003	2.164789916011311E-005	-1.6598334E-003	9.0250876E-003	7.3047588E-003	1.1610844E-002	3.8986145E+001	5.643937690959602E-007
1.5855076E+003	6.7599541E+001	6.0239357E+001	9.0545448E+001	-4.1704895E+001	3.600970717705786E+001	-2.5122485E-003	4.4058082E-003	1.6663702E+000	7.3756260E-001	1.000000000000000E+000	11	1.3211414E-001	1.4590920E-003	2.378531264120829E-005	-1.3391101E-003	8.2453769E-003	7.3476266E-003	1.1044177E-002	4.1704895E+001	2.137413481095185E-006
1.4118373E+003	6.8298683E+001	6.7073853E+001	9.5726753E+001	-4.4481609E+001	3.677119878653320E+001	-2.5233969E-003	4.2773839E-003	1.6806692E+000	8.2512945E-001	1.000000000000000E+000	11	1.3185132E-001	1.3773716E-003	2.424063607799326E-005	-9.3820586E-004	7.4532498E-003	7.3195868E-003	1.0446400E-002	4.4481609E+001	4.553234367849653E-007
1.2587914E+003	6.9058823E+001	7.4720551E+001	1.0174616E+002	-4.7255024E+001	3.753095972930896E+001	-2.4797732E-003	2.9623271E-003	1.6921011E+000	9.1257876E-001	1.000000000000000E+000	11	1.3157675E-001	1.2931863E-003	2.600335174767194E-005	-8.5802504E-004	6.6708792E-003	7.2177858E-003	9.8283803E-003	4.7255024E+001	1.762715669678682E-006
1.1217948E+003	6.9949783E+001	8.3247726E+001	1.0873434E+002	-4.9960991E+001	3.828942621863098E+001	-2.5088743E-003	3.5040674E-003	1.7042539E+000	9.9895436E-001	1.000000000000000E+000	11	1.3131952E-001	1.2077098E-003	2.581019908926747E-005	-1.0183867E-003	5.9163370E-003	7.0410748E-003	9.1967266E-003	4.9960991E+001	-1.931526584044651E-007
1.0003201E+003	7.0861679E+001	9.2633919E+001	1.1662942E+002	-5.2585289E+001	3.904868630806595E+001	-2.5045306E-003	3.6828488E-003	1.7175570E+000	1.0835152E+000	1.000000000000000E+000	11	1.3106053E-001	1.1237347E-003	2.666748744582098E-005	-1.1787484E-003	5.2094902E-003	6.8101059E-003	8.5741663E-003	5.2585289E+001	8.572883565535046E-007
8.9142657E+002	7.1839119E+001	1.0317364E+002	1.2572056E+002	-5.5150761E+001	3.980742703741998E+001	-2.4665371E-003	1.1306133E-003	1.7304770E+000	1.1654420E+000	1.000000000000000E+000	11	1.3084751E-001	1.0407806E-003	2.755375371619205E-005	-1.7400142E-003	4.5451522E-003	6.5276390E-003	7.9541486E-003	5.5150761E+001	8.862662703710760E-007
7.9423773E+002	7.3020599E+001	1.1505740E+002	1.3627257E+002	-5.7598949E+001	4.056694488684298E+001	-2.5114471E-003	4.3091513E-003	1.7416267E+000	1.2415588E+000	1.000000000000000E+000	11	1.3063359E-001	9.5861993E-004	2.778334457440845E-005	-1.6598334E-003	3.9321361E-003	6.1958041E-003	7.3382342E-003	5.7598949E+001	2.295908582163957E-007
7.0750946E+002	7.5043503E+001	1.2864917E+002	1.4893669E+002	-5.9744179E+001	4.132946230968810E+001	-2.5078864E-003	3.6319236E-003	1.7485614E+000	1.3046423E+000	1.000000000000000E+000	11	1.3045269E-001	8.7589357E-004	2.944386635711999E-005	-1.0985675E-003	3.3830598E-003	5.7996744E-003	6.7142621E-003	5.9744179E+001	1.660521782711538E-006
6.3100964E+002	7.5725464E+001	1.4297714E+002	1.6179248E+002	-6.2092812E+001	4.208742258566781E+001	-2.4664998E-003	1.6574855E-003	1.7640768E+000	1.3776348E+000	1.000000000000000E+000	11	1.3031292E-001	8.0543250E-004	3.058813759617624E-005	-1.7400142E-003	2.8928458E-003	5.4619778E-003	6.1807572E-003	6.2092812E+001	1.144271239056251E-006
5.6233929E+002	7.7354820E+001	1.5981480E+002	1.7755151E+002	-6.4171722E+001	4.284393974163686E+001	-2.5174499E-003	4.4070864E-003	1.7709435E+000	1.4347953E+000	1.000000000000000E+000	11	1.3022195E-001	7.3343189E-004	3.200995044681218E-005	-1.1787484E-003	2.4537970E-003	5.0695362E-003	5.6321681E-003	6.4171722E+001	1.421812850635941E-006
5.0144415E+002	7.9569374E+001	1.7741760E+002	1.9444354E+002	-6.5844414E+001	4.360117289758637E+001	-2.5062645E-003	3.2721180E-003	1.7889609E+000	1.4893858E+000	1.000000000000000E+000	11	1.3004999E-001	6.6883164E-004	3.265990574171883E-005	-1.0985675E-003	2.1045485E-003	4.6925582E-003	5.1428811E-003	6.5844414E+001	6.499552949066492E-007
4.4685895E+002	8.1718315E+001	1.9743144E+002	2.1367513E+002	-6.7514977E+001	4.435794213355985E+001	-2.5167975E-003	5.6373891E-003	1.8039868E+000	1.5401324E+000	1.000000000000000E+000	11	1.2994285E-001	6.0813280E-004	3.359622870174806E-005	-1.4192909E-003	1.7898290E-003	4.3242262E-003	4.6800021E-003	6.7514977E+001	9.363229600292295E-007
3.9808920E+002	8.5325500E+001	2.2125998E+002	2.3714220E+002	-6.8911636E+001	4.512073744980444E+001	-2.4492180E-003	6.8549847E-004	1.8069115E+000	1.5729862E+000	1.000000000000000E+000	11	1.2987036E-001	5.4764759E-004	3.398140858924307E-005	-1.6598334E-003	1.5172641E-003	3.9344607E-003	4.2168791E-003	6.8911636E+001	3.851798874950134E-007
3.5465955E+002	8.7149261E+001	2.4670935E+002	2.6164957E+002	-7.0544403E+001	4.587994900584454E+001	-2.5197058E-003	3.5913973E-003	1.8189589E+000	1.6171640E+000	1.000000000000000E+000	11	1.2981156E-001	4.9612753E-004	3.462271201548154E-005	-1.4192909E-003	1.2729859E-003	3.6036745E-003	3.8219057E-003	7.0544403E+001	6.413034262384631E-007
3.1631586E+002	8.9850243E+001	2.7311353E+002	2.8751358E+002	-7.1789574E+001	4.688690556035726E+001	-2.5148399E-003	7.7594812E-003	1.8422813E+000	1.6623621E+000	1.000000000000000E+000	12	1.3196233E-001	4.5897774E-004	3.683848265051508E-005	-6.9766340E-004	1.0869323E-003	3.3038969E-003	3.4780966E-003	7.1789574E+001	2.215770635033548E-006
2.8189429E+002	9.5181267E+001	3.0605817E+002	3.2051688E+002	-7.2724785E+001	4.764239103617729E+001	-2.5436988E-003	8.4790047E-003	1.8447176E+000	1.6820388E+000	1.000000000000000E+000	12	1.3147673E-001	4.1020222E-004	3.854091739112159E-005	-1.6598334E-003	9.2650921E-004	2.9792169E-003	3.1199604E-003	7.2724785E+001	1.702434740606502E-006
2.5104436E+002	9.9312500E+001	3.4222250E+002	3.5634143E+002	-7.3817345E+001	4.839791384545970E+001	-2.3770153E-003	2.5110224E-003	1.8525122E+000	1.7086203E+000	1.000000000000000E+000	12	1.3112099E-001	3.6796450E-004	3.978532964028030E-005	-1.6598334E-003	7.8211614E-004	2.6951064E-003	2.8062973E-003	7.3817345E+001	1.244412249158716E-006
2.2392513E+002	1.1087584E+002	3.7634033E+002	3.9233340E+002	-7.3584190E+001	4.916070398836018E+001	-2.5221293E-003	7.9907086E-003	1.8885852E+000	1.7377509E+000	1.000000000000000E+000	12	1.3066863E-001	3.3305507E-004	4.156873066526087E-005	-1.9003758E-003	7.2032138E-004	2.4449511E-003	2.5488525E-003	7.3584190E+001	1.783401024980570E-006
1.9955299E+002	1.0955094E+002	4.2307510E+002	4.3702853E+002	-7.5482704E+001	4.992119047776214E+001	-2.5158280E-003	7.7920011E-003	1.8851434E+000	1.7666875E+000	1.000000000000000E+000	12	1.3054527E-001	2.9871109E-004	4.328883030007192E-005	-1.3391101E-003	5.7358324E-004	2.2151233E-003	2.2881802E-003	7.5482704E+001	1.720099634811053E-006
1.7778128E+002	1.1617010E+002	4.7719269E+002	4.9112967E+002	-7.6317787E+001	5.068926624758751E+001	-2.4947992E-003	6.9549852E-003	1.8760322E+000	1.7710693E+000	1.000000000000000E+000	12	1.3039383E-001	2.6549777E-004	4.463347663381783E-005	-1.3391101E-003	4.8161726E-004	1.9783422E-003	2.0361221E-003	7.6317787E+001	1.344646333745909E-006
1.5842838E+002	1.2584368E+002	5.2737128E+002	5.4217810E+002	-7.6578812E+001	5.145571793737327E+001	-2.5106454E-003	7.6935138E-003	1.9048935E+000	1.8022693E+000	1.000000000000000E+000	12	1.3017546E-001	2.4009723E-004	4.623015775442763E-005	-1.2589293E-003	4.2810218E-004	1.7940417E-003	1.8444124E-003	7.6578812E+001	1.596681120609800E-006
1.4131134E+002	1.3592952E+002	5.8811304E+002	6.0361725E+002	-7.6985855E+001	5.220789066641009E+001	-2.5134978E-003	7.6191025E-003	1.9150597E+000	1.8179446E+000	1.000000000000000E+000	12	1.3004847E-001	2.1544856E-004	4.769357921871900E-005	-1.4192909E-003	3.7307019E-004	1.6141264E-003	1.6566790E-003	7.6985855E+001	1.463421464291367E-006
1.2584569E+002	1.4762570E+002	6.5628900E+002	6.7268762E+002	-7.7322884E+001	5.296341342225787E+001	-2.5029648E-003	7.1708304E-003	1.9270220E+000	1.8342141E+000	1.000000000000000E+000	12	1.2994373E-001	1.9317098E-004	4.944402308395204E-005	-1.3391101E-003	3.2623843E-004	1.4503348E-003	1.4865741E-003	7.7322884E+001	1.750443865233036E-006
1.1218996E+002	1.6232050E+002	7.3040088E+002	7.4822015E+002	-7.7470505E+001	5.370884796438622E+001	-2.5118946E-003	7.5421734E-003	1.9422489E+000	1.8508390E+000	1.000000000000000E+000	12	1.2985469E-001	1.7355145E-004	5.105220490716521E-005	-1.2589293E-003	2.8994432E-004	1.3046755E-003	1.3365051E-003	7.7470505E+001	1.608181823213172E-006
1.0003201E+002	1.7514584E+002	8.1408661E+002	8.3271429E+002	-7.7858238E+001	5.446867632048088E+001	-2.5105337E-003	7.6255538E-003	1.9543867E+000	1.8679261E+000	1.000000000000000E+000	12	1.2981379E-001	1.5589235E-004	5.253736382543219E-005	-1.1787484E-003	2.5258504E-004	1.1740283E-003	1.2008920E-003	7.7858238E+001	1.485158918266984E-006
8.9115974E+001	1.9660004E+002	8.8894800E+002	9.1042853E+002	-7.7529182E+001	5.523572926357156E+001	-2.5343588E-003	8.3689680E-003	2.0090382E+000	1.9153547E+000	1.000000000000000E+000	12	1.2971535E-001	1.4247725E-004	5.402140529177106E-005	-1.1787484E-003	2.3718757E-004	1.0724688E-003	1.0983839E-003	7.7529182E+001	1.484041466338868E-006
7.9415527E+001	2.2942108E+002	1.0087827E+003	1.0345417E+003	-7.7187508E+001	5.600025129984715E+001	-2.4998514E-003	6.8589766E-003	1.9866303E+000	1.8889319E+000	1.000000000000000E+000	12	1.2967676E-001	1.2534705E-004	5.555392596130939E-005	-1.0985675E-003	2.1435684E-004	9.4254391E-004	9.6661155E-004	7.7187508E+001	1.532520669538326E-006
7.0838745E+001	2.5353212E+002	1.1157555E+003	1.1441979E+003	-7.7198112E+001	5.675136842884240E+001	-2.4839493E-003	6.4966772E-003	2.0136328E+000	1.9147675E+000	1.000000000000000E+000	12	1.2965801E-001	1.1331782E-004	5.717306859052688E-005	-1.3391101E-003	1.9365585E-004	8.5224950E-004	8.7397470E-004	7.7198112E+001	1.619142629217498E-006
6.3082302E+001	2.7181912E+002	1.2621761E+003	1.2911135E+003	-7.7846542E+001	5.753183118595916E+001	-2.5555368E-003	8.7004574E-003	1.9989072E+000	1.9103094E+000	1.000000000000000E+000	12	1.2966402E-001	1.0042806E-004	5.863391029570307E-005	-1.6598334E-003	1.6306138E-004	7.5716595E-004	7.7452522E-004	7.7846542E+001	1.460841705176182E-006
5.6241817E+001	3.2272769E+002	1.3879722E+003	1.4249982E+003	-7.6910324E+001	5.827533396790386E+001	-2.4376411E-003	4.7056410E-003	2.0388255E+000	1.9342515E+000	1.000000000000000E+000	12	1.2963641E-001	9.0973037E-005	6.023616184048296E-005	-9.3820586E-004	1.5893059E-004	6.8352144E-004	7.0175529E-004	7.6910324E+001	1.602251544779895E-006
5.0144413E+001	3.6478516E+002	1.5534351E+003	1.5956907E+003	-7.6784958E+001	5.903217003055033E+001	-2.5079609E-003	7.9392893E-003	2.0431697E+000	1.9363918E+000	1.000000000000000E+000	12	1.2961785E-001	8.1229940E-005	6.199835823644551E-005	-1.3391101E-003	1.4326490E-004	6.1009254E-004	6.2668789E-004	7.6784958E+001	1.762196395962550E-006
4.4671219E+001	4.6939871E+002	1.6714374E+003	1.7360985E+003	-7.4313377E+001	5.979622900017421E+001	-2.5110370E-003	7.7856756E-003	2.1315827E+000	1.9757578E+000	1.000000000000000E+000	12	1.2952636E-001	7.4607728E-005	6.336817002057311E-005	-2.5418226E-003	1.5573751E-004	5.5455085E-004	5.7600415E-004	7.4313377E+001	1.369811784127597E-006
3.9808922E+001	5.7514069E+002	1.8284558E+003	1.9167778E+003	-7.2539032E+001	6.055873919640726E+001	-2.4387969E-003	3.7631269E-003	2.1865292E+000	1.9896681E+000	1.000000000000000E+000	12	1.2948376E-001	6.7552828E-005	6.435050828102977E-005	-1.2589293E-003	1.5654189E-004	4.9766933E-004	5.2170886E-004	7.2539032E+001	9.823382604566577E-007
3.5465305E+001	6.3119617E+002	2.1770403E+003	2.2666965E+003	-7.3831375E+001	6.130814187196665E+001	-2.4636288E-003	5.3540939E-003	2.0613415E+000	1.9014992E+000	1.000000000000000E+000	12	1.2958235E-001	5.7167927E-005	6.575344947875500E-005	-1.4192909E-003	1.2285067E-004	4.2372072E-004	4.4117065E-004	7.3831375E+001	1.402941197725237E-006
3.1629551E+001	7.6732361E+002	2.3414202E+003	2.4639468E+003	-7.1855141E+001	6.203245350634097E+001	-2.5396533E-003	8.2968874E-003	2.1490562E+000	1.9406348E+000	1.000000000000000E+000	12	1.2952352E-001	5.2567499E-005	6.721217150554407E-005	-7.7784422E-004	1.2639094E-004	3.8567075E-004	4.0585292E-004	7.1855141E+001	1.458722026789064E-006
2.8170074E+001	9.2896228E+002	2.4948884E+003	2.6622244E+003	-6.9577377E+001	6.283677455793077E+001	-2.5976878E-003	1.0417400E-002	2.2645452E+000	1.9888129E+000	1.000000000000000E+000	12	1.2948495E-001	4.8637881E-005	6.921277440903901E-005	-1.0183867E-003	1.3107163E-004	3.5201552E-004	3.7562574E-004	6.9577377E+001	2.000602903494945E-006
2.5104435E+001	8.6730383E+002	2.6775703E+003	2.8145334E+003	-7.2052109E+001	6.359290112718008E+001	-2.4368209E-003	4.3867016E-003	2.3677118E+000	2.1428795E+000	1.000000000000000E+000	12	1.2955889E-001	4.6032103E-005	7.035863042649160E-005	-1.0985675E-003	1.0948596E-004	3.3800883E-004	3.5529866E-004	7.2052109E+001	1.145856017452590E-006
2.2385387E+001	1.1638605E+003	3.0459575E+003	3.2607405E+003	-6.9088142E+001	6.450942898399080E+001	-2.4102924E-003	6.2312698E-004	2.3341656E+000	2.0367930E+000	1.000000000000000E+000	13	1.2969360E-001	3.9774277E-005	7.080657734500588E-005	-7.7784422E-004	1.0946328E-004	2.8647808E-004	3.0667882E-004	6.9088142E+001	4.479469185142800E-007
1.9955299E+001	1.3941931E+003	3.3249255E+003	3.6053994E+003	-6.7250938E+001	6.527119376687915E+001	-2.5703204E-003	4.5048643E-004	2.3987222E+000	2.0400324E+000	1.000000000000000E+000	13	1.2962231E-001	3.5952275E-005	7.099810198844453E-005	-1.3391101E-003	1.0725465E-004	2.5578507E-004	2.7736177E-004	6.7250938E+001	1.915246434386499E-007
1.7796129E+001	1.5917122E+003	3.6307053E+003	3.9642866E+003	-6.6327209E+001	6.611555431361194E+001	-2.6373686E-003	9.7220537E-004	2.4632223E+000	2.0661197E+000	1.000000000000000E+000	13	1.2962559E-001	3.2698339E-005	7.115470048664307E-005	-1.4994717E-003	1.0128250E-004	2.3102602E-004	2.5225218E-004	6.6327209E+001	1.565984981985409E-007
1.5857576E+001	1.9239689E+003	3.8991392E+003	4.3479814E+003	-6.3736691E+001	6.683794533464243E+001	-2.5210667E-003	7.4087584E-004	2.5740356E+000	2.0700302E+000	1.000000000000000E+000	13	1.2959045E-001	2.9804738E-005	7.129395191077755E-005	-1.5796525E-003	1.0177067E-004	2.0624972E-004	2.2999178E-004	6.3736691E+001	1.392514241344754E-007
1.4118974E+001	2.2563354E+003	4.2010708E+003	4.7686523E+003	-6.1760387E+001	6.764025793274050E+001	-2.4917419E-003	6.4862671E-004	2.6832244E+000	2.0825033E+000	1.000000000000000E+000	13	1.2961653E-001	2.7180955E-005	7.139038280508874E-005	-1.0985675E-003	9.9222991E-005	1.8474329E-004	2.0970285E-004	6.1760387E+001	9.643089431119237E-008
1.2600808E+001	2.6110847E+003	4.4773628E+003	5.1831016E+003	-5.9750343E+001	6.853085224170354E+001	-2.5211226E-003	7.4347941E-004	2.8209765E+000	2.1050606E+000	1.000000000000000E+000	13	1.2958321E-001	2.5001094E-005	7.164896801799831E-005	-2.2210991E-003	9.7194468E-005	1.6666441E-004	1.9293468E-004	5.9750343E+001	2.585852129095682E-007
1.1224856E+001	3.0553391E+003	4.7431055E+003	5.6419985E+003	-5.7211811E+001	6.921492699420196E+001	-2.6425417E-003	6.0036348E-004	2.9893484E+000	2.1126919E+000	1.000000000000000E+000	13	1.2951440E-001	2.2955412E-005	7.167486354117257E-005	-1.7400142E-003	9.5982818E-005	1.4900362E-004	1.7724215E-004	5.7211811E+001	2.589552317426602E-008
1.0003201E+001	3.5026150E+003	4.9836592E+003	6.0914014E+003	-5.4899689E+001	6.997568444369244E+001	-2.4841544E-003	8.5715757E-004	3.1925142E+000	2.1369534E+000	1.000000000000000E+000	13	1.2951857E-001	2.1262524E-005	7.201232688692329E-005	-1.6598334E-003	9.4396943E-005	1.3431172E-004	1.6416583E-004	5.4899689E+001	3.374633457507177E-007
8.9183798E+000	3.9737749E+003	5.1448584E+003	6.5008042E+003	-5.2318295E+001	7.082003528377390E+001	-2.5875368E-003	8.5388630E-004	3.4686520E+000	2.1725683E+000	1.000000000000000E+000	13	1.2956285E-001	1.9930281E-005	7.202436943393776E-005	-1.9805566E-003	9.4030576E-005	1.2174166E-004	1.5382712E-004	5.2318295E+001	1.204254701446766E-008
7.9395342E+000	4.5828027E+003	5.3995649E+003	7.0821875E+003	-4.9677551E+001	7.175870516838040E+001	-2.5147654E-003	7.4484874E-004	3.7124991E+000	2.1579881E+000	1.000000000000000E+000	13	1.2953679E-001	1.8290506E-005	7.237823108891644E-005	-1.2589293E-003	9.1368456E-005	1.0765246E-004	1.4119931E-004	4.9677551E+001	3.538616549786790E-007
7.0765405E+000	5.1428037E+003	5.5617710E+003	7.5750728E+003	-4.7241360E+001	7.231703436819953E+001	-2.5338742E-003	9.1215683E-004	4.0437660E+000	2.1799104E+000	1.000000000000000E+000	13	1.2959233E-001	1.7107734E-005	7.251219525802259E-005	-1.1787484E-003	8.9624416E-005	9.6925818E-005	1.3201193E-004	4.7241360E+001	1.339641691061475E-007
6.3105822E+000	5.7753477E+003	5.5796523E+003	8.0303896E+003	-4.4012646E+001	7.293718919766252E+001	-2.5075695E-003	7.4037781E-004	4.5200534E+000	2.1821499E+000	1.000000000000000E+000	13	1.2952165E-001	1.6128937E-005	7.263437589400807E-005	-1.4994717E-003	8.9558096E-005	8.6523462E-005	1.2452695E-004	4.4012646E+001	1.221806359854818E-007
5.6205034E+000	6.4049907E+003	5.5992109E+003	8.5073535E+003	-4.1159794E+001	7.362366821696196E+001	-2.5842465E-003	6.8495149E-004	5.0572929E+000	2.1906996E+000	1.000000000000000E+000	13	1.2959278E-001	1.5233031E-005	7.268693320852051E-005	-6.1748258E-004	8.8497196E-005	7.7363809E-005	1.1754537E-004	4.1159794E+001	5.255731451244317E-008
5.0144415E+000	6.9200288E+003	5.6117505E+003	8.9094639E+003	-3.9040092E+001	7.438117627953761E+001	-2.5199109E-003	6.7984848E-004	5.6558676E+000	2.2438447E+000	1.000000000000000E+000	13	1.2952067E-001	1.4537426E-005	7.269546240616970E-005	-1.5796525E-003	8.7177570E-005	7.0696071E-005	1.1224020E-004	3.9040092E+001	8.529197649193086E-009
4.4693937E+000	7.5036226E+003	5.4377563E+003	9.2667979E+003	-3.5930248E+001	7.522253823952633E+001	-2.5144485E-003	8.1600703E-004	6.5486493E+000	2.2549238E+000	1.000000000000000E+000	13	1.2951095E-001	1.3975805E-005	7.293817446054547E-005	-1.5796525E-003	8.7379914E-005	6.3322834E-005	1.0791214E-004	3.5930248E+001	2.427120543757643E-007
3.9778514E+000	8.0960166E+003	5.3055732E+003	9.6795967E+003	-3.3238079E+001	7.615918228399823E+001	-2.5075509E-003	7.5992261E-004	7.5411792E+000	2.2656319E+000	1.000000000000000E+000	13	1.2952203E-001	1.3380933E-005	7.334206129215434E-005	-1.4192909E-003	8.6408581E-005	5.6626246E-005	1.0331009E-004	3.3238079E+001	4.038868316088700E-007
3.5511365E+000	8.6081514E+003	5.0907183E+003	1.0000784E+004	-3.0599367E+001	7.720037302680430E+001	-2.5095455E-003	7.5601658E-004	8.8038721E+000	2.2812018E+000	1.000000000000000E+000	13	1.2951759E-001	1.2950743E-005	7.341033360776297E-005	-1.2589293E-003	8.6068016E-005	5.0899202E-005	9.9992161E-005	3.0599367E+001	6.827231560863414E-008
3.1603966E+000	9.1124697E+003	4.8759526E+003	1.0334990E+004	-2.8150600E+001	7.836223793533281E+001	-2.5204516E-003	7.6963077E-004	1.0328068E+001	2.2988884E+000	1.000000000000000E+000	13	1.2951648E-001	1.2531844E-005	7.351556669781146E-005	-1.6598334E-003	8.5313150E-005	4.5649849E-005	9.6758682E-005	2.8150600E+001	1.052330900484831E-007
2.8183618E+000	9.5475234E+003	4.6329927E+003	1.0612249E+004	-2.5885258E+001	7.965670071684872E+001	-2.5124482E-003	7.9649902E-004	1.2188822E+001	2.3231118E+000	1.000000000000000E+000	13	1.2951648E-001	1.2204433E-005	7.412998422331677E-005	-1.9805566E-003	8.4776577E-005	4.1138341E-005	9.4230731E-005	2.5885258E+001	6.144175255053173E-007
2.5136740E+000	9.8327891E+003	4.2999644E+003	1.0731889E+004	-2.3620176E+001	8.110074187876307E+001	-2.4941957E-003	7.0043153E-004	1.4724695E+001	2.3638706E+000	1.000000000000000E+000	13	1.2948771E-001	1.2065696E-005	7.417498448659030E-005	-1.2589293E-003	8.5373758E-005	3.7334685E-005	9.3180242E-005	2.3620176E+001	4.500026327352408E-008
2.2398219E+000	1.0266698E+004	4.1111343E+003	1.1059228E+004	-2.1822840E+001	8.271536003539222E+001	-2.5111442E-003	7.4367388E-004	1.7284027E+001	2.3884640E+000	1.000000000000000E+000	13	1.2951300E-001	1.1710854E-005	7.454904442237117E-005	-1.9003758E-003	8.3942359E-005	3.3613371E-005	9.0422225E-005	2.1822840E+001	3.740599357808733E-007
1.9970604E+000	1.0602685E+004	3.7891558E+003	1.1259424E+004	-1.9665722E+001	8.451871676111477E+001	-2.4902318E-003	6.8706734E-004	2.1032286E+001	2.3819852E+000	1.000000000000000E+000	13	1.2950960E-001	1.1502329E-005	7.519220918399999E-005	-1.0985675E-003	8.3634128E-005	2.9888914E-005	8.8814493E-005	1.9665722E+001	6.431647616288199E-007
1.7796129E+000	1.0921660E+004	3.5947917E+003	1.1498052E+004	-1.8218616E+001	8.653686712362105E+001	-2.5013173E-003	1.0860570E-003	2.4878309E+001	2.4317548E+000	1.000000000000000E+000	13	1.2949105E-001	1.1261999E-005	7.513599358076944E-005	-1.5796525E-003	8.2611426E-005	2.7191003E-005	8.6971253E-005	1.8218616E+001	-5.621560323055511E-008
1.5846854E+000	1.1222871E+004	3.3468547E+003	1.1711288E+004	-1.6605494E+001	8.879603731090901E+001	-2.4788075E-003	6.6510576E-004	3.0008219E+001	2.4507816E+000	1.000000000000000E+000	13	1.2954248E-001	1.1061335E-005	7.613080275238685E-005	-1.2589293E-003	8.1826627E-005	2.4402119E-005	8.5387706E-005	1.6605494E+001	9.948091716174173E-007
1.4122382E+000	1.1301115E+004	3.0343850E+003	1.1701397E+004	-1.5029610E+001	9.132522420436726E+001	-2.4910239E-003	1.0084559E-003	3.7139965E+001	2.4975107E+000	1.000000000000000E+000	13	1.2951432E-001	1.1068279E-005	7.626639451437223E-005	-1.2589293E-003	8.2536462E-005	2.2161301E-005	8.5459877E-005	1.5029610E+001	1.355917619853722E-007
1.2596743E+000	1.1487982E+004	2.7758276E+003	1.1818585E+004	-1.3583943E+001	9.415400260541355E+001	-2.4970318E-003	9.8792638E-004	4.5516552E+001	2.5108652E+000	1.000000000000000E+000	13	1.2950844E-001	1.0958032E-005	7.743334988804580E-005	-9.3820586E-004	8.2245620E-005	1.9872914E-005	8.4612497E-005	1.3583943E+001	1.166955373673573E-006
1.1224856E+000	1.1625360E+004	2.4607097E+003	1.1882933E+004	-1.1951248E+001	9.732215523588820E+001	-2.5048780E-003	9.2088612E-004	5.7620758E+001	2.4708846E+000	1.000000000000000E+000	13	1.2951118E-001	1.0898923E-005	7.812088961013848E-005	-1.1787484E-003	8.2330189E-005	1.7426617E-005	8.4154308E-005	1.1951248E+001	6.875397220926769E-007
1.0000638E+000	1.1749525E+004	2.2498184E+003	1.1962985E+004	-1.0839879E+001	1.008712890044262E+002	-2.5002412E-003	8.8563317E-004	7.0736732E+001	2.5018470E+000	1.000000000000000E+000	13	1.2952699E-001	1.0827313E-005	7.886533793078585E-005	-1.4192909E-003	8.2099628E-005	1.5720572E-005	8.3591178E-005	1.0839879E+001	7.444483206473754E-007